time_us,time_ms,angle,vel,vbat,set_volts
1111,1.111,19.74971580505371,0.0,8.08294677734375,-0.20000000298023224
2045,2.045,19.74971580505371,0.0,8.086624145507812,-0.20000000298023224
2956,2.956,19.748085021972656,-0.6236724853515625,8.085357666015625,-0.20000000298023224
3895,3.895,19.732553482055664,-5.5955810546875,8.0816650390625,-0.20000000298023224
4820,4.82,19.70302391052246,-14.268814086914062,8.084701538085938,-0.20000000298023224
5782,5.782,19.662565231323242,-23.125930786132812,8.090896606445312,-0.20000000298023224
6756,6.756,19.612808227539062,-32.69548034667969,8.090896606445312,-0.20000000298023224
7701,7.701,19.556913375854492,-40.970733642578125,8.093780517578125,-0.20000000298023224
8698,8.698,19.501211166381836,-46.787872314453125,8.093368530273438,-0.20000000298023224
9661,9.661,19.44272804260254,-50.67115783691406,8.091522216796875,-0.20000000298023224
10684,10.684,19.3814640045166,-54.967254638671875,8.093093872070312,-0.20000000298023224
11695,11.695,19.318954467773438,-56.58868408203125,8.093093872070312,-0.20000000298023224
12693,12.693,19.25970458984375,-58.179229736328125,8.093765258789062,-0.20000000298023224
13626,13.626,19.197385787963867,-59.6044921875,8.095016479492188,-0.20000000298023224
14596,14.596,19.13966941833496,-58.813720703125,8.094924926757812,-0.20000000298023224
15580,15.58,19.08492660522461,-57.3309326171875,8.094818115234375,-0.20000000298023224
16575,16.575,19.028648376464844,-56.88569641113281,8.09539794921875,-0.20000000298023224
17522,17.522,18.972370147705078,-56.547637939453125,8.094818115234375,-0.20000000298023224
18560,18.56,18.917722702026367,-55.8642578125,8.095016479492188,-0.20000000298023224
19518,19.518,18.85866355895996,-57.131134033203125,8.093658447265625,-0.20000000298023224
20503,20.503,18.80257797241211,-57.328155517578125,8.095123291015625,-0.20000000298023224
21503,21.503,18.74802589416504,-56.4114990234375,8.096664428710938,-0.20000000298023224
22509,22.509,18.691843032836914,-55.766937255859375,8.096466064453125,-0.20000000298023224
23466,23.466,18.640167236328125,-55.766937255859375,8.095687866210938,-0.20000000298023224
24426,24.426,18.591272354125977,-54.818939208984375,8.09326171875,-0.20000000298023224
25423,25.423,18.539308547973633,-52.78776550292969,8.093475341796875,-0.20000000298023224
26422,26.422,18.48724937438965,-52.01319885253906,8.093948364257812,-0.20000000298023224
27392,27.392,18.436819076538086,-52.60847473144531,8.095016479492188,-0.20000000298023224
28386,28.386,18.384952545166016,-51.27870178222656,8.095108032226562,-0.20000000298023224
29391,29.391,18.331645965576172,-51.51887512207031,8.094818115234375,-0.20000000298023224
30414,30.414,18.278724670410156,-52.725830078125,8.094329833984375,-0.20000000298023224
31383,31.383,18.23021125793457,-52.193145751953125,8.091033935546875,-0.20000000298023224
32367,32.367,18.181699752807617,-50.75926208496094,8.091644287109375,-0.20000000298023224
33311,33.311,18.13299560546875,-49.911834716796875,8.094833374023438,-0.20000000298023224
34313,34.313,18.087263107299805,-49.43092346191406,8.093460083007812,-0.20000000298023224
35308,35.308,18.039613723754883,-48.76777648925781,8.092498779296875,-0.20000000298023224
36272,36.272,17.990047454833984,-47.89521789550781,8.093673706054688,-0.20000000298023224
37284,37.284,17.990047454833984,-49.10418701171875,8.094436645507812,-0.20000000298023224
38243,38.243,17.940288543701172,-49.38691711425781,8.09405517578125,-0.20000000298023224
39031,39.031,17.8884220123291,-49.63859558105469,8.093460083007812,-0.20000000298023224
39991,39.991,17.836746215820312,-51.05302429199219,8.0919189453125,-0.20000000298023224
40885,40.885,17.786508560180664,-50.777191162109375,8.092025756835938,-0.20000000298023224
41795,41.795,17.739625930786133,-49.410308837890625,8.0933837890625,-0.20000000298023224
42734,42.734,17.694372177124023,-47.895599365234375,8.0924072265625,-0.20000000298023224
43717,43.717,17.64643669128418,-47.9495849609375,8.090469360351562,-0.20000000298023224
44687,44.687,17.598594665527344,-47.948150634765625,8.089508056640625,-0.20000000298023224
45653,45.653,17.5542049407959,-46.7437744140625,8.089508056640625,-0.20000000298023224
46615,46.615,17.508377075195312,-46.58979797363281,8.089614868164062,-0.20000000298023224
47554,47.554,17.45977020263672,-47.418914794921875,8.090774536132812,-0.20000000298023224
48526,48.526,17.412694931030273,-47.32832336425781,8.092422485351562,-0.20000000298023224
49560,49.56,17.3670597076416,-46.7451171875,8.092117309570312,-0.20000000298023224
50536,50.536,17.32142448425293,-46.58424377441406,8.0924072265625,-0.20000000298023224
51484,51.484,17.274063110351562,-46.72344970703125,8.093170166015625,-0.20000000298023224
52454,52.454,17.229576110839844,-45.92779541015625,8.091293334960938,-0.20000000298023224
53453,53.453,17.184900283813477,-45.43183898925781,8.09210205078125,-0.20000000298023224
54404,54.404,17.136962890625,-45.69789123535156,8.094635009765625,-0.20000000298023224
55404,55.404,17.088930130004883,-45.69789123535156,8.094924926757812,-0.20000000298023224
56359,56.359,17.043678283691406,-46.44071960449219,8.092788696289062,-0.20000000298023224
57358,57.358,16.995262145996094,-46.51646423339844,8.091339111328125,-0.20000000298023224
58327,58.327,16.94684410095215,-46.714447021484375,8.093673706054688,-0.20000000298023224
59362,59.362,16.899866104125977,-47.881805419921875,8.09259033203125,-0.20000000298023224
60353,60.353,16.856245040893555,-47.56809997558594,8.091827392578125,-0.20000000298023224
61349,61.349,16.81118392944336,-45.585906982421875,8.093185424804688,-0.20000000298023224
62320,62.32,16.763341903686523,-46.05061340332031,8.091720581054688,-0.20000000298023224
63322,63.322,16.717323303222656,-46.146484375,8.093093872070312,-0.20000000298023224
64293,64.293,16.673126220703125,-45.99835205078125,8.0947265625,-0.20000000298023224
65336,65.336,16.626243591308594,-45.804595947265625,8.092498779296875,-0.20000000298023224
66336,66.336,16.578113555908203,-45.584381103515625,8.092987060546875,-0.20000000298023224
67292,67.292,16.533245086669922,-46.369964599609375,8.094741821289062,-0.20000000298023224
68249,68.249,16.48828125,-46.35548400878906,8.094528198242188,-0.20000000298023224
69220,69.22,16.443410873413086,-45.83277893066406,8.09375,-0.20000000298023224
70221,70.221,16.443410873413086,-44.9661865234375,8.092880249023438,-0.20000000298023224
71168,71.168,16.399885177612305,-44.91239929199219,8.092208862304688,-0.20000000298023224
71959,71.959,16.35616683959961,-44.497833251953125,8.0924072265625,-0.20000000298023224
72822,72.822,16.312255859375,-44.36399841308594,8.094451904296875,-0.20000000298023224
73692,73.692,16.265182495117188,-45.39031982421875,8.094528198242188,-0.20000000298023224
74635,74.635,16.21638298034668,-45.98234558105469,8.092971801757812,-0.20000000298023224
75610,75.61,16.170555114746094,-46.44349670410156,8.0924072265625,-0.20000000298023224
76604,76.604,16.121658325195312,-47.39466857910156,8.0924072265625,-0.20000000298023224
77524,77.524,16.072956085205078,-47.580474853515625,8.091339111328125,-0.20000000298023224
78530,78.53,16.025785446166992,-47.74497985839844,8.0924072265625,-0.20000000298023224
79463,79.463,15.984848022460938,-45.255523681640625,8.093765258789062,-0.20000000298023224
80449,80.449,15.942567825317383,-44.136871337890625,8.093856811523438,-0.20000000298023224
81443,81.443,15.895971298217773,-44.46101379394531,8.093948364257812,-0.20000000298023224
82436,82.436,15.850814819335938,-45.273162841796875,8.092300415039062,-0.20000000298023224
83436,83.436,15.805850982666016,-44.70588684082031,8.092025756835938,-0.20000000298023224
84430,84.43,15.75935173034668,-45.376800537109375,8.09124755859375,-0.20000000298023224
85407,85.407,15.709592819213867,-46.93370056152344,8.091156005859375,-0.20000000298023224
86415,86.415,15.661369323730469,-47.951690673828125,8.093093872070312,-0.20000000298023224
87385,87.385,15.614391326904297,-47.71421813964844,8.0924072265625,-0.20000000298023224
88413,88.413,15.56578254699707,-47.4295654296875,8.092315673828125,-0.20000000298023224
89389,89.389,15.520147323608398,-46.663909912109375,8.093093872070312,-0.20000000298023224
90334,90.334,15.477579116821289,-46.663909912109375,8.0928955078125,-0.20000000298023224
91352,91.352,15.433382034301758,-45.70977783203125,8.093368530273438,-0.20000000298023224
92371,92.371,15.387649536132812,-45.506622314453125,8.093765258789062,-0.20000000298023224
93373,93.373,15.338945388793945,-46.70735168457031,8.093170166015625,-0.20000000298023224
94324,94.324,15.293310165405273,-46.70735168457031,8.091537475585938,-0.20000000298023224
95346,95.346,15.244606018066406,-47.35247802734375,8.0928955078125,-0.20000000298023224
96389,96.389,15.191394805908203,-48.95155334472656,8.094146728515625,-0.20000000298023224
97365,97.365,15.14278793334961,-49.3438720703125,8.092788696289062,-0.20000000298023224
98386,98.386,15.095617294311523,-48.56690979003906,8.092117309570312,-0.20000000298023224
99355,99.355,15.046817779541016,-48.74342346191406,8.0933837890625,-0.20000000298023224
100361,100.361,14.999456405639648,-48.29588317871094,8.095504760742188,-0.20000000298023224
101332,101.332,14.951902389526367,-48.29588317871094,8.094329833984375,-0.20000000298023224
102330,102.33,14.902624130249023,-48.65742492675781,8.093170166015625,-0.20000000298023224
103285,103.285,14.851619720458984,-48.65742492675781,8.090850830078125,-0.20000000298023224
104278,104.278,14.798791885375977,-49.69755554199219,8.092422485351562,-0.20000000298023224
105285,105.285,14.744049072265625,-51.58013916015625,8.096481323242188,-0.20000000298023224
106292,106.292,14.686140060424805,-53.931060791015625,8.095306396484375,-0.20000000298023224
107274,107.274,14.631204605102539,-53.931060791015625,8.094818115234375,-0.20000000298023224
108302,108.302,14.576269149780273,-54.831787109375,8.094924926757812,-0.20000000298023224
109272,109.272,14.519990921020508,-54.97618103027344,8.094635009765625,-0.20000000298023224
110272,110.272,14.461029052734375,-54.97618103027344,8.095016479492188,-0.20000000298023224
111215,111.215,14.403888702392578,-56.39280700683594,8.096176147460938,-0.20000000298023224
112217,112.217,14.340995788574219,-56.60755920410156,8.09539794921875,-0.20000000298023224
113246,113.246,14.275224685668945,-58.92463684082031,8.095306396484375,-0.20000000298023224
114265,114.265,14.21108627319336,-61.28985595703125,8.095504760742188,-0.20000000298023224
115244,115.244,14.145124435424805,-62.29307556152344,8.09588623046875,-0.20000000298023224
116189,116.189,14.077054977416992,-64.15428161621094,8.099090576171875,-0.20000000298023224
117141,117.141,14.008504867553711,-65.02816772460938,8.097900390625,-0.20000000298023224
118158,118.158,13.936407089233398,-66.36866760253906,8.095870971679688,-0.20000000298023224
119155,119.155,13.86574935913086,-68.58920288085938,8.0985107421875,-0.20000000298023224
120199,120.199,13.79029655456543,-69.3575439453125,8.099746704101562,-0.20000000298023224
121199,121.199,13.716760635375977,-71.54719543457031,8.097808837890625,-0.20000000298023224
122152,122.152,13.643608093261719,-72.25503540039062,8.097625732421875,-0.20000000298023224
123097,123.097,13.570552825927734,-72.06280517578125,8.098297119140625,-0.20000000298023224
124075,124.075,13.49759292602539,-72.87985229492188,8.098785400390625,-0.20000000298023224
125076,125.076,13.42137336730957,-72.92173767089844,8.100234985351562,-0.20000000298023224
126081,126.081,13.42137336730957,-74.04566955566406,8.100906372070312,-0.20000000298023224
127035,127.035,13.348318099975586,-73.63179016113281,8.09906005859375,-0.20000000298023224
128078,128.078,13.273727416992188,-73.37876892089844,8.098785400390625,-0.20000000298023224
128863,128.863,13.20258903503418,-72.96536254882812,8.098876953125,-0.20000000298023224
129745,129.745,13.13193130493164,-72.26414489746094,8.09674072265625,-0.20000000298023224
130582,130.582,13.061750411987305,-71.53205871582031,8.098602294921875,-0.20000000298023224
131540,131.54,12.991666793823242,-70.99995422363281,8.100921630859375,-0.20000000298023224
132491,132.491,12.921775817871094,-70.65280151367188,8.099258422851562,-0.20000000298023224
133474,133.474,12.853416442871094,-69.75550842285156,8.099258422851562,-0.20000000298023224
134439,134.439,12.789566040039062,-67.78587341308594,8.09771728515625,-0.20000000298023224
135416,135.416,12.722644805908203,-67.48809814453125,8.098785400390625,-0.20000000298023224
136392,136.392,12.657258987426758,-66.15870666503906,8.097915649414062,-0.20000000298023224
137426,137.426,12.592161178588867,-66.31890869140625,8.098663330078125,-0.20000000298023224
138388,138.388,12.525527954101562,-66.99751281738281,8.099716186523438,-0.20000000298023224
139389,139.389,12.460334777832031,-65.90895080566406,8.097015380859375,-0.20000000298023224
140339,140.339,12.396482467651367,-65.16909790039062,8.097427368164062,-0.20000000298023224
141345,141.345,12.335601806640625,-63.4639892578125,8.097747802734375,-0.20000000298023224
142314,142.314,12.277503967285156,-61.47181701660156,8.097244262695312,-0.20000000298023224
143309,143.309,12.21786880493164,-61.426177978515625,8.094696044921875,-0.20000000298023224
144309,144.309,12.159770965576172,-59.649261474609375,8.092498779296875,-0.20000000298023224
145282,145.282,12.103300094604492,-58.45945739746094,8.09503173828125,-0.20000000298023224
146341,146.341,12.042421340942383,-59.3846435546875,8.094818115234375,-0.20000000298023224
147350,147.35,11.987964630126953,-58.074920654296875,8.092193603515625,-0.20000000298023224
148326,148.326,11.936479568481445,-55.780364990234375,8.091644287109375,-0.20000000298023224
149285,149.285,11.883365631103516,-54.279083251953125,8.08984375,-0.20000000298023224
150243,150.243,11.833127975463867,-52.71528625488281,8.090042114257812,-0.20000000298023224
151256,151.256,11.785573959350586,-50.695892333984375,8.093017578125,-0.20000000298023224
152223,152.223,11.734762191772461,-50.75360107421875,8.093185424804688,-0.20000000298023224
153237,153.237,11.683565139770508,-51.501708984375,8.09405517578125,-0.20000000298023224
154173,154.173,11.632080078125,-51.501708984375,8.093948364257812,-0.20000000298023224
155194,155.194,11.58021354675293,-50.923583984375,8.09356689453125,-0.20000000298023224
156158,156.158,11.528440475463867,-51.18330383300781,8.09454345703125,-0.20000000298023224
157131,157.131,11.481462478637695,-51.23680114746094,8.094528198242188,-0.20000000298023224
158070,158.07,11.436115264892578,-50.23396301269531,8.094528198242188,-0.20000000298023224
159052,159.052,11.389520645141602,-48.45013427734375,8.09356689453125,-0.20000000298023224
160003,160.003,11.343116760253906,-47.87153625488281,8.092208862304688,-0.20000000298023224
161006,161.006,11.343116760253906,-47.412689208984375,8.092697143554688,-0.20000000298023224
161961,161.961,11.29853630065918,-46.39738464355469,8.094924926757812,-0.20000000298023224
162937,162.937,11.254146575927734,-45.78675842285156,8.095108032226562,-0.20000000298023224
163745,163.745,11.20850944519043,-45.96931457519531,8.093658447265625,-0.20000000298023224
164600,164.6,11.161340713500977,-46.44465637207031,8.09356689453125,-0.20000000298023224
165496,165.496,11.115800857543945,-46.16853332519531,8.09405517578125,-0.20000000298023224
166473,166.473,11.071699142456055,-44.86177062988281,8.095123291015625,-0.20000000298023224
167419,167.419,11.02750015258789,-45.08659362792969,8.095123291015625,-0.20000000298023224
168371,168.371,10.980138778686523,-45.29454040527344,8.09637451171875,-0.20000000298023224
169363,169.363,10.937187194824219,-44.99235534667969,8.094818115234375,-0.20000000298023224
170326,170.326,10.892509460449219,-44.34519958496094,8.09161376953125,-0.20000000298023224
171288,171.288,10.846107482910156,-45.25984191894531,8.090377807617188,-0.20000000298023224
172240,172.24,10.79951286315918,-46.094329833984375,8.092849731445312,-0.20000000298023224
173253,173.253,10.754261016845703,-45.779571533203125,8.09393310546875,-0.20000000298023224
174252,174.252,10.70584487915039,-46.78797912597656,8.0933837890625,-0.20000000298023224
175221,175.221,10.655797958374023,-48.03730773925781,8.093185424804688,-0.20000000298023224
176274,176.274,10.608915328979492,-46.981353759765625,8.092987060546875,-0.20000000298023224
177256,177.256,10.565292358398438,-46.330078125,8.093368530273438,-0.20000000298023224
178243,178.243,10.51716423034668,-46.39422607421875,8.092117309570312,-0.20000000298023224
179214,179.214,10.46788501739502,-47.40885925292969,8.092987060546875,-0.20000000298023224
180240,180.24,10.420427322387695,-47.35084533691406,8.093368530273438,-0.20000000298023224
181240,181.24,10.374792098999023,-47.31834411621094,8.092010498046875,-0.20000000298023224
182233,182.233,10.32493782043457,-47.70634460449219,8.094635009765625,-0.20000000298023224
183202,183.202,10.275370597839355,-48.24861145019531,8.095596313476562,-0.20000000298023224
184208,184.208,10.228967666625977,-48.178619384765625,8.094818115234375,-0.20000000298023224
185178,185.178,10.182661056518555,-47.619964599609375,8.09539794921875,-0.20000000298023224
186165,186.165,10.133190155029297,-47.76866149902344,8.09423828125,-0.20000000298023224
187171,187.171,10.08659553527832,-47.37078857421875,8.094528198242188,-0.20000000298023224
188214,188.214,10.039712905883789,-47.793975830078125,8.092880249023438,-0.20000000298023224
189189,189.189,9.988037109375,-48.59710693359375,8.093185424804688,-0.20000000298023224
190195,190.195,9.936264991760254,-49.71922302246094,8.094635009765625,-0.20000000298023224
191192,191.192,9.88430118560791,-51.10987854003906,8.092208862304688,-0.20000000298023224
192161,192.161,9.830803871154785,-51.50151062011719,8.0933837890625,-0.20000000298023224
193145,193.145,9.777593612670898,-52.70521545410156,8.09356689453125,-0.20000000298023224
194158,194.158,9.72591781616211,-52.31529235839844,8.092117309570312,-0.20000000298023224
195111,195.111,9.677501678466797,-50.31047058105469,8.093673706054688,-0.20000000298023224
196133,196.133,9.627742767333984,-50.6412353515625,8.095504760742188,-0.20000000298023224
197105,197.105,9.575204849243164,-50.6412353515625,8.095794677734375,-0.20000000298023224
198062,198.062,9.524199485778809,-50.6993408203125,8.095306396484375,-0.20000000298023224
199038,199.038,9.47012710571289,-51.376312255859375,8.09637451171875,-0.20000000298023224
200056,200.056,9.414423942565918,-51.82518005371094,8.097442626953125,-0.20000000298023224
201025,201.025,9.358433723449707,-53.147857666015625,8.09326171875,-0.20000000298023224
201982,201.982,9.30388069152832,-54.04322814941406,8.091537475585938,-0.20000000298023224
202963,202.963,9.249137878417969,-54.204010009765625,8.0943603515625,-0.20000000298023224
203976,203.976,9.19890022277832,-54.34368896484375,8.095016479492188,-0.20000000298023224
204972,204.972,9.150196075439453,-52.792266845703125,8.094619750976562,-0.20000000298023224
206007,206.007,9.09688949584961,-51.87677001953125,8.094635009765625,-0.20000000298023224
206947,206.947,9.042049407958984,-52.46293640136719,8.093368530273438,-0.20000000298023224
207911,207.911,8.990373611450195,-52.6954345703125,8.092697143554688,-0.20000000298023224
208913,208.913,8.934096336364746,-52.986602783203125,8.09521484375,-0.20000000298023224
209913,209.913,8.87781810760498,-53.642852783203125,8.096466064453125,-0.20000000298023224
210919,210.919,8.823074340820312,-55.068023681640625,8.095306396484375,-0.20000000298023224
211888,211.888,8.771302223205566,-54.32768249511719,8.09326171875,-0.20000000298023224
212912,212.912,8.717804908752441,-53.377471923828125,8.093856811523438,-0.20000000298023224
213907,213.907,8.717804908752441,-53.35264587402344,8.091720581054688,-0.20000000298023224
