time_us,time_ms,angle,vel,vbat,set_volts
1120,1.12,19.75115394592285,-0.02685546875,7.9208831787109375,0.0
2109,2.109,19.75115394592285,-0.018798828125,7.920684814453125,0.0
3057,3.057,19.75115394592285,-0.01458740234375,7.9203948974609375,0.0
4022,4.022,19.75115394592285,-0.0103607177734375,7.9209747314453125,0.0
4993,4.993,19.749523162841797,-0.0095977783203125,7.9209747314453125,0.0
5926,5.926,19.749523162841797,-0.6657562255859375,7.9214630126953125,0.0
6880,6.88,19.749523162841797,-0.4294281005859375,7.9213714599609375,0.0
7854,7.854,19.747989654541016,-0.78387451171875,7.9213714599609375,0.0
8807,8.807,19.746456146240234,-1.1473236083984375,7.9215545654296875,0.0
9778,9.778,19.746456146240234,-0.7389068603515625,7.9214630126953125,0.0
10862,10.862,19.74492073059082,-0.941680908203125,7.921844482421875,0.0
11848,11.848,19.7432918548584,-1.1424407958984375,7.921173095703125,0.0
12835,12.835,19.741758346557617,-1.305145263671875,7.9213714599609375,0.0
13775,13.775,19.740222930908203,-1.3549957275390625,7.92340087890625,0.0
14727,14.727,19.737060546875,-1.3549957275390625,7.923492431640625,0.0
15692,15.692,19.733991622924805,-2.0059814453125,7.924163818359375,0.0
16710,16.71,19.73082733154297,-2.48553466796875,7.9233856201171875,0.0
17705,17.705,19.727760314941406,-2.8181304931640625,7.9194183349609375,0.0
18704,18.704,19.72459602355957,-2.883514404296875,7.9212799072265625,0.0
19664,19.664,19.721529006958008,-2.91082763671875,7.92486572265625,0.0
20658,20.658,19.718460083007812,-2.941802978515625,7.9245452880859375,0.0
21669,21.669,19.713857650756836,-2.9969329833984375,7.9237823486328125,0.0
22696,22.696,19.7044620513916,-3.5212554931640625,7.9232940673828125,0.0
23702,23.702,19.69516372680664,-5.6756439208984375,7.9242706298828125,0.0
24673,24.673,19.687301635742188,-6.39306640625,7.924072265625,0.0
25697,25.697,19.678001403808594,-8.296066284179688,7.9237823486328125,0.0
26710,26.71,19.670236587524414,-8.296066284179688,7.924652099609375,0.0
27697,27.697,19.66237449645996,-7.976806640625,7.92474365234375,0.0
28642,28.642,19.65460777282715,-7.9614715576171875,7.9254302978515625,0.0
29659,29.659,19.64837646484375,-7.945556640625,7.9266815185546875,0.0
30698,30.698,19.643678665161133,-7.3468170166015625,7.9252166748046875,0.0
31689,31.689,19.639076232910156,-6.3684234619140625,7.9249420166015625,0.0
32667,32.667,19.631311416625977,-5.741607666015625,7.925323486328125,0.0
33658,33.658,19.622011184692383,-5.841888427734375,7.9244537353515625,0.0
34635,34.635,19.615779876708984,-6.9880523681640625,7.92474365234375,0.0
35587,35.587,19.60485076904297,-7.2485504150390625,7.9249420166015625,0.0
36601,36.601,19.595550537109375,-8.064437866210938,7.92523193359375,0.0
37604,37.604,19.587783813476562,-8.947433471679688,7.9228057861328125,0.0
38582,38.582,19.57848358154297,-7.9700927734375,7.9211578369140625,0.0
39576,39.576,19.57071876525879,-9.06640625,7.9236907958984375,0.0
40571,40.571,19.561418533325195,-8.536224365234375,7.925811767578125,0.0
41573,41.573,19.54905128479004,-8.193572998046875,7.924835205078125,0.0
42570,42.57,19.536684036254883,-10.238861083984375,7.9233856201171875,0.0
43573,43.573,19.52124786376953,-11.0933837890625,7.923980712890625,0.0
44685,44.685,19.508880615234375,-12.129486083984375,7.9244537353515625,0.0
45709,45.709,19.494977951049805,-12.5953369140625,7.92242431640625,0.0
46732,46.732,19.485679626464844,-11.943588256835938,7.9221343994140625,0.0
47730,47.73,19.471872329711914,-12.601089477539062,7.92388916015625,0.0
48752,48.752,19.46103858947754,-12.123443603515625,7.924560546875,0.0
49741,49.741,19.447233200073242,-12.683258056640625,7.9232940673828125,0.0
50814,50.814,19.433427810668945,-12.571945190429688,7.922332763671875,0.0
51810,51.81,19.42115592956543,-12.909042358398438,7.92340087890625,0.0
52789,52.789,19.410417556762695,-12.199371337890625,7.923980712890625,0.0
53768,53.768,19.39670753479004,-12.657852172851562,7.923583984375,0.0
54770,54.77,19.384435653686523,-12.038497924804688,7.923004150390625,0.0
55764,55.764,19.37225914001465,-12.52294921875,7.9232025146484375,0.0
56779,56.779,19.360084533691406,-12.4814453125,7.92340087890625,0.0
57781,57.781,19.34790802001953,-12.43475341796875,7.92291259765625,0.0
58765,58.765,19.343305587768555,-9.619415283203125,7.9232940673828125,0.0
59704,59.704,19.332569122314453,-10.054290771484375,7.9228057861328125,0.0
60737,60.737,19.32345962524414,-9.669357299804688,7.92388916015625,0.0
61745,61.745,19.31435203552246,-9.535049438476562,7.9238739013671875,0.0
62749,62.749,19.300642013549805,-10.4102783203125,7.92242431640625,0.0
63775,63.775,19.293067932128906,-9.919204711914062,7.9235992431640625,0.0
64766,64.766,19.28089141845703,-10.763381958007812,7.9232940673828125,0.0
65707,65.707,19.273317337036133,-9.54644775390625,7.92340087890625,0.0
66727,66.727,19.267181396484375,-8.334030151367188,7.923980712890625,0.0
67716,67.716,19.256635665893555,-9.1575927734375,7.9238739013671875,0.0
68735,68.735,19.248966217041016,-8.0125732421875,7.923675537109375,0.0
69716,69.716,19.2429256439209,-7.279998779296875,7.9228057861328125,0.0
70722,70.722,19.232284545898438,-9.012344360351562,7.9226226806640625,0.0
71683,71.683,19.22471046447754,-8.475921630859375,7.9226226806640625,0.0
72692,72.692,19.221641540527344,-8.475921630859375,7.9243621826171875,0.0
73692,73.692,19.217041015625,-5.90411376953125,7.925140380859375,0.0
74698,74.698,19.212533950805664,-5.3716278076171875,7.923583984375,0.0
75689,75.689,19.211000442504883,-4.0400390625,7.923492431640625,0.0
76691,76.691,19.211000442504883,-2.5980987548828125,7.9249420166015625,0.0
77703,77.703,19.212533950805664,-1.171875,7.9256134033203125,0.0
78667,78.667,19.214067459106445,-1.171875,7.9246368408203125,0.0
79610,79.61,19.214067459106445,-0.2350921630859375,7.9244537353515625,0.0
80653,80.653,19.212533950805664,-0.15283203125,7.9232940673828125,0.0
81662,81.662,19.212533950805664,-0.4760284423828125,7.924652099609375,0.0
82658,82.658,19.2094669342041,-1.3787689208984375,7.925811767578125,0.0
83663,83.663,19.206398010253906,-1.912017822265625,7.923187255859375,0.0
84644,84.644,19.203330993652344,-2.3633880615234375,7.924072265625,0.0
85626,85.626,19.20035743713379,-2.048736572265625,7.925140380859375,0.0
86655,86.655,19.197290420532227,-2.9300079345703125,7.92572021484375,0.0
87619,87.619,19.188182830810547,-5.228302001953125,7.9261932373046875,0.0
88641,88.641,19.179073333740234,-5.9960479736328125,7.92474365234375,0.0
89616,89.616,19.17150115966797,-5.9960479736328125,7.9243621826171875,0.0
90699,90.699,19.1562557220459,-9.529388427734375,7.923095703125,0.0
91671,91.671,19.144081115722656,-11.105743408203125,7.9220428466796875,0.0
92691,92.691,19.127397537231445,-13.064071655273438,7.9246673583984375,0.0
93707,93.707,19.109182357788086,-15.022674560546875,7.925323486328125,0.0
94714,94.714,19.089336395263672,-16.952041625976562,7.9239654541015625,0.0
95662,95.662,19.068052291870117,-18.64459228515625,7.9242706298828125,0.0
96688,96.688,19.046768188476562,-19.598831176757812,7.9243621826171875,0.0
97703,97.703,19.025484085083008,-19.527786254882812,7.923583984375,0.0
98723,98.723,19.004199981689453,-20.634933471679688,7.921356201171875,0.0
99708,99.708,18.984451293945312,-20.384613037109375,7.921661376953125,0.0
100709,100.709,18.96470069885254,-19.632568359375,7.92486572265625,0.0
101710,101.71,18.949552536010742,-18.495132446289062,7.9260101318359375,0.0
102716,102.716,18.93133544921875,-18.315841674804688,7.923095703125,0.0
103673,103.673,18.91014862060547,-18.815338134765625,7.9217376708984375,0.0
104700,104.7,18.891931533813477,-18.621673583984375,7.9225311279296875,0.0
105689,105.689,18.873716354370117,-18.38861083984375,7.9232025146484375,0.0
106667,106.667,18.8555965423584,-18.728958129882812,7.923583984375,0.0
107671,107.671,18.837379455566406,-18.53424072265625,7.9236907958984375,0.0
108622,108.622,18.82223129272461,-16.764801025390625,7.924072265625,0.0
109637,109.637,18.810152053833008,-15.531768798828125,7.9243621826171875,0.0
110695,110.695,18.80401611328125,-12.22210693359375,7.923583984375,0.0
111694,111.694,18.79500389099121,-10.970367431640625,7.923492431640625,0.0
112702,112.702,18.787429809570312,-9.711639404296875,7.9237823486328125,0.0
113691,113.691,18.78292465209961,-7.8735504150390625,7.9237823486328125,0.0
114707,114.707,18.775253295898438,-7.2490234375,7.924652099609375,0.0
115702,115.702,18.770748138427734,-6.8085784912109375,7.9233856201171875,0.0
116697,116.697,18.766145706176758,-6.09576416015625,7.9226226806640625,0.0
117695,117.695,18.764707565307617,-4.4745330810546875,7.9237823486328125,0.0
118697,118.697,18.763174057006836,-3.487518310546875,7.9242706298828125,0.0
119710,119.71,18.763174057006836,-2.243072509765625,7.924652099609375,0.0
120726,120.726,18.76010513305664,-2.4946441650390625,7.9248504638671875,0.0
121696,121.696,18.75713348388672,-2.7357635498046875,7.92523193359375,0.0
122655,122.655,18.754066467285156,-2.8426666259765625,7.9260101318359375,0.0
123638,123.638,18.7479305267334,-4.009552001953125,7.9245452880859375,0.0
124635,124.635,18.743423461914062,-4.2476043701171875,7.9238739013671875,0.0
125634,125.634,18.73891830444336,-4.412506103515625,7.92572021484375,0.0
126636,126.636,18.729713439941406,-6.2382354736328125,7.924346923828125,0.0
127635,127.635,18.717634201049805,-8.327606201171875,7.923583984375,0.0
128641,128.641,18.70545768737793,-9.196029663085938,7.9247589111328125,0.0
129656,129.656,18.691843032836914,-11.252822875976562,7.92523193359375,0.0
130694,130.694,18.679668426513672,-11.103439331054688,7.9255218505859375,0.0
131683,131.683,18.667491912841797,-11.35223388671875,7.9219207763671875,0.0
132666,132.666,18.659822463989258,-10.49713134765625,7.92010498046875,0.0
133667,133.667,18.6461124420166,-11.651458740234375,7.9227294921875,0.0
134682,134.682,18.633935928344727,-11.314361572265625,7.9254302978515625,0.0
135673,135.673,18.61869239807129,-13.202316284179688,7.926300048828125,0.0
136676,136.676,18.601913452148438,-14.023086547851562,7.9257049560546875,0.0
137610,137.61,18.58820343017578,-14.439178466796875,7.9246368408203125,0.0
138576,138.576,18.571331024169922,-15.469161987304688,7.9239654541015625,0.0
139573,139.573,18.55455207824707,-16.111312866210938,7.9239654541015625,0.0
140581,140.581,18.537677764892578,-15.805953979492188,7.9237823486328125,0.0
141595,141.595,18.5223388671875,-16.203933715820312,7.9249420166015625,0.0
142567,142.567,18.508628845214844,-16.203933715820312,7.9245452880859375,0.0
143500,143.5,18.494823455810547,-15.414703369140625,7.923583984375,0.0
144480,144.48,18.47957992553711,-14.816726684570312,7.9248504638671875,0.0
145501,145.501,18.465774536132812,-15.075302124023438,7.924652099609375,0.0
146518,146.518,18.44899559020996,-14.597091674804688,7.9237823486328125,0.0
147584,147.584,18.436723709106445,-13.811309814453125,7.9244537353515625,0.0
148624,148.624,18.42301368713379,-14.220306396484375,7.925140380859375,0.0
149639,149.639,18.40623664855957,-14.669479370117188,7.9254302978515625,0.0
150728,150.728,18.3909912109375,-14.8040771484375,7.924652099609375,0.0
151685,151.685,18.375747680664062,-15.469924926757812,7.923583984375,0.0
152679,152.679,18.36357307434082,-13.735275268554688,7.9237823486328125,0.0
153619,153.619,18.352930068969727,-13.132415771484375,7.923980712890625,0.0
154573,154.573,18.342288970947266,-13.132415771484375,7.924072265625,0.0
155560,155.56,18.333084106445312,-11.274765014648438,7.923675537109375,0.0
156545,156.545,18.325605392456055,-11.274765014648438,7.9228057861328125,0.0
157547,157.547,18.32100486755371,-9.861297607421875,7.922515869140625,0.0
158503,158.503,18.319469451904297,-7.4261016845703125,7.9220428466796875,0.0
159504,159.504,18.317935943603516,-5.7806243896484375,7.9219512939453125,0.0
160534,160.534,18.319469451904297,-2.731353759765625,7.9215545654296875,0.0
161518,161.518,18.32100486755371,-2.731353759765625,7.9213714599609375,0.0
162471,162.471,18.322538375854492,-0.716278076171875,7.923797607421875,0.0
163455,163.455,18.322538375854492,0.17974853515625,7.924560546875,0.0
164458,164.458,18.324071884155273,0.113800048828125,7.923675537109375,0.0
165399,165.399,18.32100486755371,0.7067718505859375,7.923675537109375,0.0
166371,166.371,18.32100486755371,-0.661346435546875,7.924652099609375,0.0
167374,167.374,18.317935943603516,-0.4267425537109375,7.9245452880859375,0.0
168353,168.353,18.317935943603516,-1.3232574462890625,7.9243621826171875,0.0
169286,169.286,18.314868927001953,-1.947784423828125,7.9238739013671875,0.0
170169,170.169,18.310361862182617,-2.8617401123046875,7.924163818359375,0.0
171033,171.033,18.307390213012695,-2.952728271484375,7.923675537109375,0.0
171910,171.91,18.3043212890625,-3.0139923095703125,7.923004150390625,0.0
172799,172.799,18.301349639892578,-2.9684600830078125,7.9237823486328125,0.0
173775,173.775,18.29521369934082,-4.16619873046875,7.9237823486328125,0.0
174729,174.729,18.287736892700195,-5.4781494140625,7.9233856201171875,0.0
175736,175.736,18.280162811279297,-6.2952728271484375,7.924652099609375,0.0
176689,176.689,18.2725887298584,-6.8436737060546875,7.9254302978515625,0.0
177661,177.661,18.258974075317383,-9.35345458984375,7.924163818359375,0.0
178657,178.657,18.24833106994629,-9.851242065429688,7.923675537109375,0.0
179669,179.669,18.233182907104492,-11.151290893554688,7.924652099609375,0.0
180657,180.657,18.21957015991211,-11.9730224609375,7.925140380859375,0.0
181652,181.652,18.204421997070312,-13.129928588867188,7.925323486328125,0.0
182610,182.61,18.18620491027832,-14.984603881835938,7.9238739013671875,0.0
183582,183.582,18.1694278717041,-16.186676025390625,7.9221343994140625,0.0
184598,184.598,18.152746200561523,-15.749588012695312,7.923583984375,0.0
185641,185.641,18.139036178588867,-14.968887329101562,7.923583984375,0.0
186616,186.616,18.126859664916992,-14.474273681640625,7.925140380859375,0.0
187635,187.635,18.113149642944336,-14.307266235351562,7.925140380859375,0.0
188598,188.598,18.09934425354004,-13.532882690429688,7.9245452880859375,0.0
189656,189.656,18.085634231567383,-13.52703857421875,7.9222259521484375,0.0
190638,190.638,18.07642936706543,-12.457656860351562,7.9227142333984375,0.0
191599,191.599,18.062528610229492,-13.028488159179688,7.9232025146484375,0.0
192539,192.539,18.050256729125977,-12.755355834960938,7.923095703125,0.0
193555,193.555,18.034820556640625,-13.761734008789062,7.923980712890625,0.0
194564,194.564,18.020919799804688,-13.92913818359375,7.9242706298828125,0.0
195578,195.578,18.005483627319336,-14.506393432617188,7.92425537109375,0.0
196579,196.579,17.991485595703125,-14.427001953125,7.92474365234375,0.0
197582,197.582,17.975954055786133,-14.253280639648438,7.924163818359375,0.0
198579,198.579,17.96042251586914,-15.287857055664062,7.9232940673828125,0.0
199580,199.58,17.944795608520508,-15.532623291015625,7.924072265625,0.0
200576,200.576,17.930797576904297,-14.908096313476562,7.9254302978515625,0.0
201542,201.542,17.91977310180664,-13.53643798828125,7.9261932373046875,0.0
202527,202.527,17.908842086791992,-12.506942749023438,7.9244537353515625,0.0
203499,203.499,17.899351119995117,-12.506942749023438,7.923187255859375,0.0
204443,204.443,17.889860153198242,-10.83221435546875,7.9217376708984375,0.0
205436,205.436,17.88209342956543,-10.934127807617188,7.92291259765625,0.0
206443,206.443,17.87432861328125,-9.789016723632812,7.9253387451171875,0.0
207384,207.384,17.866466522216797,-9.151641845703125,7.9250335693359375,0.0
208337,208.337,17.86176872253418,-8.734878540039062,7.924163818359375,0.0
209356,209.356,17.856975555419922,-7.216339111328125,7.9227142333984375,0.0
210361,210.361,17.855440139770508,-5.703643798828125,7.9248504638671875,0.0
211356,211.356,17.853906631469727,-4.6842041015625,7.9263916015625,0.0
212309,212.309,17.853906631469727,-3.5264434814453125,7.924835205078125,0.0
213190,213.19,17.85074234008789,-3.3828277587890625,7.9238739013671875,0.0
214049,214.049,17.847675323486328,-3.2765960693359375,7.924163818359375,0.0
214926,214.926,17.84288215637207,-3.857391357421875,7.9243621826171875,0.0
215790,215.79,17.838184356689453,-4.2579498291015625,7.924652099609375,0.0
216758,216.758,17.835115432739258,-3.845794677734375,7.923095703125,0.0
217710,217.71,17.82878875732422,-4.7401123046875,7.9206695556640625,0.0
218739,218.739,17.819393157958984,-5.8707427978515625,7.921173095703125,0.0
219710,219.71,17.80999755859375,-7.0047454833984375,7.9231109619140625,0.0
220702,220.702,17.802040100097656,-7.91650390625,7.9231109619140625,0.0
221664,221.664,17.792739868164062,-8.483016967773438,7.9237823486328125,0.0
222625,222.625,17.783248901367188,-8.210159301757812,7.923492431640625,0.0
223652,223.652,17.777015686035156,-8.053787231445312,7.923583984375,0.0
224597,224.597,17.770689010620117,-7.563018798828125,7.92364501953125,0.0
225561,225.561,17.761388778686523,-8.1881103515625,7.9235382080078125,0.0
226588,226.588,17.75199317932129,-8.0362548828125,7.9235382080078125,0.0
227554,227.554,17.741064071655273,-9.671951293945312,7.923095703125,0.0
228574,228.574,17.728599548339844,-10.684478759765625,7.925048828125,0.0
229551,229.551,17.714506149291992,-11.966690063476562,7.9255218505859375,0.0
230542,230.542,17.702043533325195,-12.151626586914062,7.925323486328125,0.0
231489,231.489,17.686607360839844,-12.779708862304688,7.9249420166015625,0.0
232467,232.467,17.672609329223633,-13.2073974609375,7.92425537109375,0.0
233483,233.483,17.65707778930664,-14.581268310546875,7.924652099609375,0.0
234504,234.504,17.64164161682129,-14.3720703125,7.9256134033203125,0.0
235458,235.458,17.629274368286133,-14.114944458007812,7.9249420166015625,0.0
236455,236.455,17.6185359954834,-12.95831298828125,7.9239654541015625,0.0
237462,237.462,17.607702255249023,-11.568145751953125,7.922515869140625,0.0
238495,238.495,17.600032806396484,-10.70892333984375,7.9232025146484375,0.0
239496,239.496,17.58776092529297,-11.339767456054688,7.9221343994140625,0.0
240499,240.499,17.577024459838867,-11.2694091796875,7.9227142333984375,0.0
241470,241.47,17.563217163085938,-11.643508911132812,7.9253387451171875,0.0
242465,242.465,17.551042556762695,-11.782608032226562,7.924835205078125,0.0
243468,243.468,17.537235260009766,-13.046234130859375,7.925140380859375,0.0
244494,244.494,17.521991729736328,-13.952713012695312,7.923187255859375,0.0
245496,245.496,17.50531005859375,-14.940414428710938,7.922515869140625,0.0
246498,246.498,17.486997604370117,-15.5787353515625,7.924468994140625,0.0
247489,247.489,17.47328758239746,-15.572219848632812,7.923492431640625,0.0
248491,248.491,17.459674835205078,-14.275039672851562,7.922027587890625,0.0
249581,249.581,17.447498321533203,-13.501251220703125,7.921844482421875,0.0
250622,250.622,17.43685531616211,-12.956680297851562,7.9226226806640625,0.0
251552,251.552,17.42774772644043,-11.627304077148438,7.923583984375,0.0
252512,252.512,17.41710662841797,-11.2220458984375,7.924652099609375,0.0
253434,253.434,17.41106605529785,-8.726058959960938,7.924652099609375,0.0
254431,254.431,17.407997131347656,-8.726058959960938,7.9239654541015625,0.0
255384,255.384,17.404930114746094,-7.219879150390625,7.924652099609375,0.0
256337,256.337,17.401958465576172,-5.7439117431640625,7.9232940673828125,0.0
257290,257.29,17.400423049926758,-4.7731781005859375,7.9228057861328125,0.0
258323,258.323,17.397356033325195,-3.604766845703125,7.924468994140625,0.0
259316,259.316,17.394384384155273,-3.338623046875,7.925811767578125,0.0
260322,260.322,17.391315460205078,-3.2008514404296875,7.924835205078125,0.0
261266,261.266,17.386714935302734,-3.1572265625,7.9234771728515625,0.0
262266,262.266,17.379140853881836,-3.73602294921875,7.9247589111328125,0.0
263244,263.244,17.368497848510742,-5.163482666015625,7.9245452880859375,0.0
