time_us,time_ms,angle,vel,vbat,set_volts
1126,1.126,11.955655097961426,0.46527099609375,7.8242034912109375,0.0
2205,2.205,11.954121589660645,-0.2493743896484375,7.8262481689453125,0.0
3191,3.191,11.955655097961426,-0.2202301025390625,7.8262481689453125,0.0
4123,4.123,11.954121589660645,-0.240936279296875,7.827392578125,0.0
5083,5.083,11.954121589660645,-0.1566619873046875,7.825836181640625,0.0
6062,6.062,11.952587127685547,-0.66058349609375,7.82720947265625,0.0
7026,7.026,11.952587127685547,-0.4261627197265625,7.826324462890625,0.0
8002,8.002,11.951053619384766,-0.861907958984375,7.8258514404296875,0.0
8946,8.946,11.951053619384766,-0.55560302734375,7.82769775390625,0.0
9948,9.948,11.949519157409668,-0.833251953125,7.8261260986328125,0.0
11029,11.029,11.948081016540527,-1.14483642578125,7.825653076171875,0.0
12016,12.016,11.946547508239746,-1.3603668212890625,7.82672119140625,0.0
12968,12.968,11.945013046264648,-1.505035400390625,7.828369140625,0.0
13971,13.971,11.943479537963867,-1.5435791015625,7.8283538818359375,0.0
14967,14.967,11.93887710571289,-1.5435791015625,7.8262176513671875,0.0
15905,15.905,11.934370994567871,-2.6972198486328125,7.826812744140625,0.0
16893,16.893,11.931303024291992,-3.44207763671875,7.8285675048828125,0.0
17902,17.902,11.926796913146973,-3.32568359375,7.82806396484375,0.0
18856,18.856,11.923728942871094,-3.6688079833984375,7.8271942138671875,0.0
19844,19.844,11.920660972595215,-3.3843536376953125,7.8270111083984375,0.0
20863,20.863,11.916154861450195,-3.3422698974609375,7.828369140625,0.0
21866,21.866,11.911553382873535,-3.1520538330078125,7.8293304443359375,0.0
22837,22.837,11.906950950622559,-4.25152587890625,7.8284454345703125,0.0
23841,23.841,11.902444839477539,-4.3561248779296875,7.8271942138671875,0.0
24844,24.844,11.900911331176758,-4.38153076171875,7.8308868408203125,0.0
25835,25.835,11.89937686920166,-3.352813720703125,7.832427978515625,0.0
26844,26.844,11.897843360900879,-2.6761322021484375,7.826690673828125,0.0
27785,27.785,11.896308898925781,-2.337982177734375,7.826324462890625,0.0
28802,28.802,11.89333724975586,-2.0848846435546875,7.8270111083984375,0.0
29785,29.785,11.89026927947998,-2.446807861328125,7.827301025390625,0.0
30811,30.811,11.887296676635742,-2.723297119140625,7.8271026611328125,0.0
31812,31.812,11.88422966003418,-2.79559326171875,7.826324462890625,0.0
32804,32.804,11.8811616897583,-3.5475311279296875,7.8286590576171875,0.0
33782,33.782,11.878093719482422,-2.907379150390625,7.830291748046875,0.0
34760,34.76,11.878093719482422,-2.9651031494140625,7.8285369873046875,0.0
35630,35.63,11.876559257507324,-2.52349853515625,7.8283538818359375,0.0
36471,36.471,11.876559257507324,-1.62353515625,7.829620361328125,0.0
37350,37.35,11.875121116638184,-1.5731048583984375,7.8277740478515625,0.0
38214,38.214,11.872053146362305,-2.21795654296875,7.828460693359375,0.0
39161,39.161,11.870519638061523,-2.610748291015625,7.8283538818359375,0.0
40173,40.173,11.862945556640625,-3.3749542236328125,7.8256378173828125,0.0
41213,41.213,11.856809616088867,-4.8731842041015625,7.825164794921875,0.0
42154,42.154,11.85220718383789,-4.849884033203125,7.8264312744140625,0.0
43126,43.126,11.847701072692871,-4.8238983154296875,7.8264312744140625,0.0
44079,44.079,11.838593482971191,-5.8862762451171875,7.828857421875,0.0
45033,45.033,11.829484939575195,-7.5302276611328125,7.8294219970703125,0.0
46009,46.009,11.823348999023438,-6.994873046875,7.8273773193359375,0.0
46996,46.996,11.811173439025879,-8.3377685546875,7.8293304443359375,0.0
47966,47.966,11.802064895629883,-8.473526000976562,7.8309783935546875,0.0
48942,48.942,11.795928955078125,-8.169708251953125,7.830963134765625,0.0
49998,49.998,11.783753395080566,-9.738494873046875,7.82940673828125,0.0
50962,50.962,11.773111343383789,-9.498703002929688,7.82659912109375,0.0
51980,51.98,11.759401321411133,-11.667083740234375,7.828460693359375,0.0
52960,52.96,11.745595932006836,-11.840042114257812,7.8293304443359375,0.0
53977,53.977,11.730351448059082,-12.963592529296875,7.8282623291015625,0.0
54951,54.951,11.721147537231445,-12.113372802734375,7.82757568359375,0.0
55905,55.905,11.710505485534668,-11.642837524414062,7.829437255859375,0.0
56855,56.855,11.702836036682129,-11.642837524414062,7.8309783935546875,0.0
57898,57.898,11.693632125854492,-9.89447021484375,7.829315185546875,0.0
58909,58.909,11.679825782775879,-11.320892333984375,7.828643798828125,0.0
59906,59.906,11.669088363647461,-11.224334716796875,7.830291748046875,0.0
60918,60.918,11.655282974243164,-12.124114990234375,7.8300018310546875,0.0
61874,61.874,11.643011093139648,-12.299087524414062,7.8296051025390625,0.0
62849,62.849,11.629109382629395,-12.828399658203125,7.8300018310546875,0.0
63852,63.852,11.61376953125,-12.828399658203125,7.8292236328125,0.0
64831,64.831,11.598333358764648,-13.838241577148438,7.8295135498046875,0.0
65803,65.803,11.581268310546875,-13.797683715820312,7.8300933837890625,0.0
66786,66.786,11.564298629760742,-15.445571899414062,7.8304901123046875,0.0
67748,67.748,11.550300598144531,-16.171524047851562,7.8304901123046875,0.0
68747,68.747,11.533235549926758,-15.340011596679688,7.8295135498046875,0.0
69730,69.73,11.517704010009766,-15.986785888671875,7.82855224609375,0.0
70698,70.698,11.517704010009766,-15.956680297851562,7.8288421630859375,0.0
71643,71.643,11.502172470092773,-15.1378173828125,7.8287506103515625,0.0
72448,72.448,11.487982749938965,-15.413650512695312,7.8292236328125,0.0
73403,73.403,11.47714900970459,-13.700088500976562,7.8293304443359375,0.0
74259,74.259,11.464685440063477,-13.360885620117188,7.8300018310546875,0.0
75145,75.145,11.453755378723145,-12.42266845703125,7.831268310546875,0.0
76104,76.104,11.44119644165039,-12.563980102539062,7.829315185546875,0.0
77095,77.095,11.42863655090332,-12.486236572265625,7.829315185546875,0.0
78032,78.032,11.414639472961426,-12.51287841796875,7.8267974853515625,0.0
79027,79.027,11.403614044189453,-11.783004760742188,7.8271942138671875,0.0
79980,79.98,11.391054153442383,-12.044158935546875,7.8271942138671875,0.0
80954,80.954,11.38002872467041,-12.116058349609375,7.8270111083984375,0.0
81934,81.934,11.365935325622559,-12.983535766601562,7.8280792236328125,0.0
82927,82.927,11.353376388549805,-12.227081298828125,7.8282623291015625,0.0
83865,83.865,11.342350006103516,-12.227081298828125,7.826812744140625,0.0
84858,84.858,11.331324577331543,-11.911468505859375,7.827301025390625,0.0
85834,85.834,11.320490837097168,-11.626632690429688,7.826812744140625,0.0
86825,86.825,11.306205749511719,-11.9256591796875,7.82672119140625,0.0
87806,87.806,11.293646812438965,-11.9256591796875,7.828277587890625,0.0
88817,88.817,11.279648780822754,-12.815948486328125,7.830596923828125,0.0
89754,89.754,11.265555381774902,-13.196365356445312,7.8304901123046875,0.0
90686,90.686,11.253091812133789,-13.598175048828125,7.8292236328125,0.0
91685,91.685,11.238998413085938,-13.181991577148438,7.8302001953125,0.0
92658,92.658,11.226534843444824,-13.01190185546875,7.8278656005859375,0.0
93663,93.663,11.212441444396973,-13.274795532226562,7.825927734375,0.0
94668,94.668,11.19997787475586,-13.664230346679688,7.8275909423828125,0.0
95640,95.64,11.19997787475586,-12.537521362304688,7.8297271728515625,0.0
96635,96.635,11.189240455627441,-11.85174560546875,7.82855224609375,0.0
97434,97.434,11.181378364562988,-10.850814819335938,7.82806396484375,0.0
98348,98.348,11.175146102905273,-9.225372314453125,7.8272857666015625,0.0
99191,99.191,11.162778854370117,-9.772430419921875,7.8249664306640625,0.0
100083,100.083,11.15357494354248,-10.113067626953125,7.824005126953125,0.0
101055,101.055,11.139673233032227,-11.000473022460938,7.824005126953125,0.0
102005,102.005,11.12730598449707,-11.932373046875,7.824981689453125,0.0
102994,102.994,11.111869812011719,-13.26348876953125,7.8280792236328125,0.0
104003,104.003,11.098064422607422,-12.9285888671875,7.8287506103515625,0.0
105002,105.002,11.08262825012207,-14.427291870117188,7.828460693359375,0.0
106011,106.011,11.068822860717773,-14.352127075195312,7.828460693359375,0.0
106983,106.983,11.05501651763916,-13.5513916015625,7.8288421630859375,0.0
107944,107.944,11.04590892791748,-12.572128295898438,7.8277740478515625,0.0
108930,108.93,11.036705017089844,-11.407363891601562,7.8277740478515625,0.0
109914,109.914,11.030569076538086,-9.452789306640625,7.8275909423828125,0.0
110883,110.883,11.02289867401123,-8.886550903320312,7.8276824951171875,0.0
111856,111.856,11.012256622314453,-8.974472045898438,7.829132080078125,0.0
112856,112.856,11.004587173461914,-8.428085327148438,7.82855224609375,0.0
113810,113.81,10.995478630065918,-8.428085327148438,7.8276824951171875,0.0
114760,114.76,10.9847412109375,-9.28424072265625,7.827880859375,0.0
115769,115.769,10.980138778686523,-7.9862060546875,7.8277740478515625,0.0
116763,116.763,10.974099159240723,-7.3514251708984375,7.8281707763671875,0.0
117792,117.792,10.967963218688965,-6.9424285888671875,7.830780029296875,0.0
118802,118.802,10.963361740112305,-6.02001953125,7.8296051025390625,0.0
119776,119.776,10.958759307861328,-4.9093170166015625,7.8271942138671875,0.0
120775,120.775,10.95569133758545,-4.9093170166015625,7.829437255859375,0.0
121731,121.731,10.94811725616455,-4.7657012939453125,7.82904052734375,0.0
122705,122.705,10.938913345336914,-5.2240753173828125,7.8282623291015625,0.0
123679,123.679,10.932777404785156,-7.216522216796875,7.82952880859375,0.0
124684,124.684,10.923669815063477,-6.8797149658203125,7.82855224609375,0.0
125670,125.67,10.912931442260742,-7.1627349853515625,7.8266143798828125,0.0
126663,126.663,10.906795501708984,-8.321090698242188,7.8275909423828125,0.0
127659,127.659,10.897591590881348,-8.006332397460938,7.8288421630859375,0.0
128657,128.657,10.888387680053711,-7.9415283203125,7.8287506103515625,0.0
129667,129.667,10.882251739501953,-8.919723510742188,7.82904052734375,0.0
130667,130.667,10.871514320373535,-7.934906005859375,7.828643798828125,0.0
131670,131.67,10.8607759475708,-8.455307006835938,7.8288421630859375,0.0
132640,132.64,10.850038528442383,-9.78546142578125,7.8276824951171875,0.0
133594,133.594,10.839204788208008,-9.605422973632812,7.8303985595703125,0.0
134594,134.594,10.831534385681152,-10.502609252929688,7.8316497802734375,0.0
135572,135.572,10.831534385681152,-9.474929809570312,7.827850341796875,0.0
136366,136.366,10.822235107421875,-8.850021362304688,7.8266143798828125,0.0
137298,137.298,10.814565658569336,-8.916366577148438,7.8276824951171875,0.0
138135,138.135,10.809866905212402,-7.431854248046875,7.8288421630859375,0.0
139069,139.069,10.802197456359863,-7.0196075439453125,7.8289337158203125,0.0
139992,139.992,10.792801856994629,-8.453964233398438,7.8289337158203125,0.0
140925,140.925,10.785131454467773,-7.59014892578125,7.829620361328125,0.0
141869,141.869,10.775735855102539,-8.8292236328125,7.830291748046875,0.0
142854,142.854,10.764902114868164,-9.60809326171875,7.826995849609375,0.0
143829,143.829,10.758670806884766,-8.4373779296875,7.8245849609375,0.0
144831,144.831,10.749370574951172,-8.248703002929688,7.82672119140625,0.0
145822,145.822,10.741604804992676,-8.599029541015625,7.827880859375,0.0
146906,146.906,10.73527717590332,-7.8256072998046875,7.826416015625,0.0
147878,147.878,10.729045867919922,-7.420257568359375,7.8279876708984375,0.0
148849,148.849,10.71811580657959,-8.119857788085938,7.8302001953125,0.0
149822,149.822,10.710350036621094,-8.439788818359375,7.829132080078125,0.0
150800,150.8,10.69779109954834,-9.392379760742188,7.82806396484375,0.0
151773,151.773,10.688299179077148,-9.851516723632812,7.8256378173828125,0.0
152730,152.73,10.678999900817871,-9.851516723632812,7.8242950439453125,0.0
153685,153.685,10.66950798034668,-9.718734741210938,7.827606201171875,0.0
154724,154.724,10.663276672363281,-8.470458984375,7.83001708984375,0.0
155702,155.702,10.656949043273926,-8.470458984375,7.827178955078125,0.0
156735,156.735,10.647648811340332,-8.487335205078125,7.8271026611328125,0.0
157750,157.75,10.638157844543457,-8.817520141601562,7.8293304443359375,0.0
158739,158.739,10.62550163269043,-10.30145263671875,7.8287353515625,0.0
159716,159.716,10.612942695617676,-11.0352783203125,7.8287506103515625,0.0
160732,160.732,10.600382804870605,-11.6839599609375,7.8277740478515625,0.0
161734,161.734,10.587823867797852,-11.363449096679688,7.8260345458984375,0.0
162685,162.685,10.581496238708496,-11.363449096679688,7.82672119140625,0.0
163643,163.643,10.568936347961426,-10.12103271484375,7.8274993896484375,0.0
164654,164.654,10.559637069702148,-11.102294921875,7.827972412109375,0.0
165633,165.633,10.548515319824219,-10.536056518554688,7.8292388916015625,0.0
166640,166.64,10.537489891052246,-10.913711547851562,7.8292236328125,0.0
167606,167.606,10.53116226196289,-10.300888061523438,7.8292236328125,0.0
168611,168.611,10.524930000305176,-8.732864379882812,7.8297119140625,0.0
169587,169.587,10.517068862915039,-8.430099487304688,7.830291748046875,0.0
170583,170.583,10.512371063232422,-8.245346069335938,7.8296051025390625,0.0
171565,171.565,10.509303092956543,-6.9962158203125,7.82708740234375,0.0
172561,172.561,10.499811172485352,-5.5478363037109375,7.82904052734375,0.0
173582,173.582,10.490511894226074,-6.3851165771484375,7.8321380615234375,0.0
174597,174.597,10.482649803161621,-7.35382080078125,7.83056640625,0.0
175598,175.598,10.471720695495605,-8.108627319335938,7.8297119140625,0.0
176624,176.624,10.462228775024414,-9.216079711914062,7.829132080078125,0.0
177648,177.648,10.454463005065918,-9.33563232421875,7.8271942138671875,0.0
178678,178.678,10.44516372680664,-9.119140625,7.82855224609375,0.0
179662,179.662,10.438931465148926,-9.119140625,7.8294219970703125,0.0
180664,180.664,10.432700157165527,-7.45745849609375,7.8292236328125,0.0
181679,181.679,10.421674728393555,-8.2279052734375,7.82806396484375,0.0
182656,182.656,10.41227912902832,-9.17340087890625,7.8282623291015625,0.0
183653,183.653,10.39828109741211,-10.449005126953125,7.829620361328125,0.0
184652,184.652,10.384284019470215,-10.449005126953125,7.829620361328125,0.0
185634,185.634,10.370382308959961,-11.618194580078125,7.8290252685546875,0.0
186676,186.676,10.356287956237793,-12.770217895507812,7.8298187255859375,0.0
187680,187.68,10.342290878295898,-13.781875610351562,7.83251953125,0.0
188643,188.643,10.328389167785645,-13.781875610351562,7.8317413330078125,0.0
189645,189.645,10.314391136169434,-14.065948486328125,7.8280487060546875,0.0
190659,190.659,10.303462028503418,-12.9759521484375,7.827392578125,0.0
191667,191.667,10.291093826293945,-12.752761840820312,7.8288421630859375,0.0
192704,192.704,10.28332805633545,-10.393692016601562,7.8293304443359375,0.0
193750,193.75,10.275466918945312,-9.42919921875,7.829132080078125,0.0
194728,194.728,10.267796516418457,-9.278289794921875,7.8283538818359375,0.0
195700,195.7,10.25849723815918,-9.295547485351562,7.8288421630859375,0.0
196759,196.759,10.246033668518066,-10.582077026367188,7.8293304443359375,0.0
197717,197.717,10.235199928283691,-10.685150146484375,7.8295135498046875,0.0
198675,198.675,10.22120189666748,-11.3555908203125,7.8287353515625,0.0
199678,199.678,10.208738327026367,-11.3555908203125,7.8287506103515625,0.0
200689,200.689,10.194741249084473,-13.033676147460938,7.8298187255859375,0.0
201649,201.649,10.180743217468262,-13.033676147460938,7.8299102783203125,0.0
202608,202.608,10.16521167755127,-13.497222900390625,7.83087158203125,0.0
203562,203.562,10.152748107910156,-14.214645385742188,7.8297119140625,0.0
204534,204.534,10.14181900024414,-13.64410400390625,7.828643798828125,0.0
205556,205.556,10.135683059692383,-12.631393432617188,7.8310699462890625,0.0
206627,206.627,10.130985260009766,-8.263656616210938,7.8305816650390625,0.0
207643,207.643,10.12475299835205,-7.5234222412109375,7.8284454345703125,0.0
208614,208.614,10.118521690368652,-7.5234222412109375,7.8271026611328125,0.0
209609,209.609,10.113823890686035,-7.0164337158203125,7.82672119140625,0.0
210635,210.635,10.106058120727539,-6.1664276123046875,7.8292388916015625,0.0
211598,211.598,10.095128059387207,-6.8089752197265625,7.828643798828125,0.0
212573,212.573,10.087362289428711,-8.363372802734375,7.826995849609375,0.0
213546,213.546,10.081130981445312,-7.5684814453125,7.827789306640625,0.0
214521,214.521,10.073365211486816,-7.6637725830078125,7.8302001953125,0.0
215486,215.486,10.067132949829102,-7.758209228515625,7.8317413330078125,0.0
216534,216.534,10.063969612121582,-7.1414642333984375,7.8281402587890625,0.0
217562,217.562,10.059367179870605,-5.6263580322265625,7.8271942138671875,0.0
218567,218.567,10.05160140991211,-5.2510223388671875,7.828948974609375,0.0
219598,219.598,10.043835639953613,-6.2512664794921875,7.8283538818359375,0.0
220629,220.629,10.037604331970215,-6.2512664794921875,7.8283538818359375,0.0
221577,221.577,10.029838562011719,-6.78778076171875,7.8313751220703125,0.0
222576,222.576,10.018908500671387,-7.2874755859375,7.83087158203125,0.0
223546,223.546,10.011239051818848,-8.644760131835938,7.828155517578125,0.0
224573,224.573,10.003473281860352,-7.6956024169921875,7.831085205078125,0.0
225605,225.605,9.9940767288208,-8.2890625,7.830291748046875,0.0
226663,226.663,9.986407279968262,-8.284469604492188,7.829315185546875,0.0
227677,227.677,9.977011680603027,-8.195022583007812,7.8289337158203125,0.0
228628,228.628,9.966273307800293,-9.563034057617188,7.82757568359375,0.0
229604,229.604,9.953906059265137,-10.709503173828125,7.829132080078125,0.0
230579,230.579,9.939908027648926,-10.709503173828125,7.8293304443359375,0.0
231537,231.537,9.926006317138672,-11.852127075195312,7.8287353515625,0.0
232572,232.572,9.913735389709473,-12.735031127929688,7.82855224609375,0.0
233618,233.618,9.904435157775879,-11.517044067382812,7.8306884765625,0.0
234570,234.57,9.892163276672363,-11.517044067382812,7.8301849365234375,0.0
235537,235.537,9.882863998413086,-11.749435424804688,7.8290252685546875,0.0
236563,236.563,9.869057655334473,-10.99462890625,7.8299102783203125,0.0
237569,237.569,9.858320236206055,-11.979537963867188,7.8297119140625,0.0
238561,238.561,9.84298038482666,-11.58770751953125,7.8283538818359375,0.0
239581,239.581,9.833776473999023,-11.705429077148438,7.8281707763671875,0.0
240589,240.589,9.820066452026367,-11.705429077148438,7.8298187255859375,0.0
241546,241.546,9.807794570922852,-12.440597534179688,7.830291748046875,0.0
242581,242.581,9.794084548950195,-12.377899169921875,7.8300933837890625,0.0
243565,243.565,9.783346176147461,-12.369171142578125,7.827178955078125,0.0
244588,244.588,9.769636154174805,-12.2674560546875,7.8250579833984375,0.0
245581,245.581,9.762063026428223,-11.091262817382812,7.82720947265625,0.0
246686,246.686,9.752859115600586,-10.488510131835938,7.8253631591796875,0.0
247707,247.707,9.742217063903809,-10.502792358398438,7.8250732421875,0.0
248665,248.665,9.733108520507812,-9.501968383789062,7.827789306640625,0.0
249650,249.65,9.719494819641113,-10.853790283203125,7.826812744140625,0.0
250610,250.61,9.711824417114258,-10.276046752929688,7.8275909423828125,0.0
251618,251.618,9.698114395141602,-11.524429321289062,7.8306884765625,0.0
252600,252.6,9.690540313720703,-9.482986450195312,7.8294219970703125,0.0
253575,253.575,9.681432723999023,-9.936752319335938,7.827484130859375,0.0
254589,254.589,9.670790672302246,-9.58154296875,7.8308868408203125,0.0
255564,255.564,9.664751052856445,-8.245452880859375,7.8310699462890625,0.0
256598,256.598,9.65257453918457,-9.664474487304688,7.8289337158203125,0.0
257587,257.587,9.645000457763672,-9.329681396484375,7.8294219970703125,0.0
258558,258.558,9.637331008911133,-9.329681396484375,7.8287353515625,0.0
259537,259.537,9.629756927490234,-8.866714477539062,7.8304901123046875,0.0
260537,260.537,9.623620986938477,-8.4249267578125,7.8300933837890625,0.0
261536,261.536,9.622182846069336,-7.6366424560546875,7.8292236328125,0.0
