time_us,time_ms,angle,vel,vbat,set_volts
1110,1.11,-5.821936130523682,-0.620697021484375,7.8343505859375,7.8341522216796875
2042,2.042,-5.815800189971924,0.0742950439453125,7.8351287841796875,7.8341522216796875
3033,3.033,-5.815800189971924,2.1217803955078125,7.5114898681640625,7.8341522216796875
3913,3.913,-5.702861309051514,41.22056579589844,6.8567657470703125,7.8341522216796875
4747,4.747,-5.487528324127197,103.04902648925781,6.4437408447265625,7.8341522216796875
5579,5.579,-5.207577228546143,166.4138641357422,6.248199462890625,7.8341522216796875
6468,6.468,-4.856199741363525,232.0731658935547,6.123779296875,7.8341522216796875
7395,7.395,-4.439915180206299,297.81298828125,6.123779296875,7.8341522216796875
8338,8.338,-3.9496169090270996,366.314453125,6.0679168701171875,7.8341522216796875
9296,9.296,-3.3960413932800293,432.6318359375,5.9999542236328125,7.8341522216796875
10347,10.347,-2.7665343284606934,502.83966064453125,5.95379638671875,7.8341522216796875
11290,11.29,-2.0772013664245605,568.821044921875,5.9350128173828125,7.8341522216796875
12249,12.249,-1.329577922821045,633.0078735351562,5.982574462890625,7.8341522216796875
13176,13.176,-0.5157051086425781,697.6881103515625,6.061737060546875,7.8341522216796875
14142,14.142,0.3409276008605957,697.6881103515625,6.1445159912109375,7.8341522216796875
15112,15.112,1.2414698600769043,754.238525390625,6.230194091796875,7.8341522216796875
16115,16.115,2.1887989044189453,806.4451904296875,6.3079071044921875,7.8341522216796875
17103,17.103,3.191830635070801,856.41796875,6.38031005859375,7.8341522216796875
18037,18.037,4.222857475280762,908.2005004882812,6.4607086181640625,7.8341522216796875
19013,19.013,5.282934188842773,952.805908203125,6.534271240234375,7.8341522216796875
20038,20.038,6.377141952514648,990.367919921875,6.5928192138671875,7.8341522216796875
21008,21.008,6.377141952514648,1027.2930908203125,6.6351318359375,7.8341522216796875
21883,21.883,7.456201553344727,1045.96826171875,6.638031005859375,7.8341522216796875
22707,22.707,8.470450401306152,1034.9462890625,6.545318603515625,7.8341522216796875
23591,23.591,9.345586776733398,978.5623168945312,6.24749755859375,7.8341522216796875
24462,24.462,10.026386260986328,871.8753662109375,5.870330810546875,7.8341522216796875
25389,25.389,10.597506523132324,764.9248046875,5.9769744873046875,7.8341522216796875
26346,26.346,11.163833618164062,693.8703002929688,5.9769744873046875,7.8341522216796875
27298,27.298,11.874066352844238,699.5875244140625,5.9203338623046875,7.8341522216796875
28250,28.25,12.658793449401855,729.6207275390625,5.750457763671875,7.8341522216796875
29253,29.253,13.451669692993164,753.0264892578125,6.0043792724609375,7.8341522216796875
30254,30.254,14.23284912109375,763.0751342773438,6.10919189453125,7.8341522216796875
31212,31.212,15.00904369354248,767.507080078125,6.10992431640625,7.8341522216796875
32178,32.178,15.768844604492188,765.437744140625,6.0882720947265625,7.8341522216796875
33166,33.166,16.506975173950195,755.5460205078125,6.04052734375,7.8341522216796875
34158,34.158,17.205320358276367,735.608154296875,5.9869842529296875,7.8341522216796875
35174,35.174,17.878931045532227,713.5310668945312,5.93048095703125,0.0
36202,36.202,18.520612716674805,713.5310668945312,5.86883544921875,0.0
36989,36.989,18.520612716674805,693.6063842773438,5.9928131103515625,0.0
37685,37.685,19.04312515258789,633.0902099609375,6.6215667724609375,0.0
38521,38.521,19.368234634399414,523.1736450195312,7.213409423828125,0.0
39229,39.229,19.52029037475586,390.9061279296875,7.213409423828125,0.0
40038,40.038,19.58126449584961,390.9061279296875,7.381744384765625,0.0
40849,40.849,19.58126449584961,273.49066162109375,7.472137451171875,0.0
41534,41.534,19.611753463745117,185.27110290527344,7.53497314453125,0.0
42327,42.327,19.637542724609375,129.00534057617188,7.53497314453125,0.0
43118,43.118,19.664962768554688,129.00534057617188,7.58270263671875,0.0
43932,43.932,19.664962768554688,92.59207153320312,7.6173095703125,0.0
44661,44.661,19.69228744506836,69.16673278808594,7.646453857421875,0.0
45434,45.434,19.705997467041016,49.62629699707031,7.669891357421875,0.0
46230,46.23,19.705997467041016,31.607391357421875,7.669891357421875,0.0
47022,47.022,19.680110931396484,31.607391357421875,7.6876373291015625,0.0
47809,47.809,19.680110931396484,11.158462524414062,7.70172119140625,0.0
48490,48.49,19.634571075439453,-9.387786865234375,7.71417236328125,0.0
49289,49.289,19.59650993347168,-19.587600708007812,7.71417236328125,0.0
50065,50.065,19.573692321777344,-19.587600708007812,7.724884033203125,0.0
50866,50.866,19.573692321777344,-20.5372314453125,7.733856201171875,0.0
51565,51.565,19.552310943603516,-20.659194946289062,7.7414703369140625,0.0
52348,52.348,19.52939796447754,-22.197296142578125,7.7463836669921875,0.0
53123,53.123,19.511085510253906,-20.7315673828125,7.7463836669921875,0.0
53934,53.934,19.511085510253906,-20.7315673828125,7.751220703125,0.0
54665,54.665,19.501977920532227,-16.349655151367188,7.755462646484375,0.0
55417,55.417,19.492773056030273,-13.92913818359375,7.760101318359375,0.0
56123,56.123,19.478967666625977,-13.92913818359375,7.760101318359375,0.0
56906,56.906,19.478967666625977,-13.918777465820312,7.763763427734375,0.0
57617,57.617,19.46516227722168,-13.887039184570312,7.766265869140625,0.0
58384,58.384,19.452890396118164,-13.325515747070312,7.7691650390625,0.0
59129,59.129,19.44215202331543,-11.944259643554688,7.7691650390625,0.0
59922,59.922,19.44215202331543,-11.944259643554688,7.7722625732421875,0.0
60642,60.642,19.423744201660156,-14.078887939453125,7.77447509765625,0.0
61423,61.423,19.399105072021484,-17.8773193359375,7.775726318359375,0.0
62122,62.122,19.372835159301758,-20.775680541992188,7.775726318359375,0.0
62909,62.909,19.372835159301758,-20.775680541992188,7.776885986328125,0.0
63727,63.727,19.351167678833008,-21.553207397460938,7.779022216796875,0.0
64444,64.444,19.326337814331055,-22.604751586914062,7.780853271484375,0.0
65216,65.216,19.30150604248047,-23.1011962890625,7.780853271484375,0.0
65987,65.987,19.278112411499023,-23.1011962890625,7.7829742431640625,0.0
66736,66.736,19.278112411499023,-23.776626586914062,7.783843994140625,0.0
67437,67.437,19.251554489135742,-24.1412353515625,7.7825775146484375,0.0
68211,68.211,19.228065490722656,-24.109405517578125,7.7825775146484375,0.0
69009,69.009,19.20457649230957,-24.109405517578125,7.785003662109375,0.0
69761,69.761,19.20457649230957,-24.410247802734375,7.7869415283203125,0.0
70434,70.434,19.18568992614746,-22.364395141601562,7.7866363525390625,0.0
71208,71.208,19.17313003540039,-18.98052978515625,7.7866363525390625,0.0
71972,71.972,19.160572052001953,-18.98052978515625,7.7854766845703125,0.0
72783,72.783,19.160572052001953,-16.789718627929688,7.78460693359375,0.0
73464,73.464,19.149738311767578,-14.623733520507812,7.78839111328125,0.0
74235,74.235,19.144943237304688,-11.112548828125,7.7916717529296875,0.0
74999,74.999,19.141780853271484,-11.112548828125,7.7916717529296875,0.0
75792,75.792,19.141780853271484,-8.140945434570312,7.791656494140625,0.0
76521,76.521,19.141780853271484,-5.2281951904296875,7.788848876953125,0.0
77259,77.259,19.143409729003906,-2.7381591796875,7.7888641357421875,0.0
78043,78.043,19.1464786529541,-2.7381591796875,7.7888641357421875,0.0
78871,78.871,19.15127182006836,-0.759613037109375,7.7906036376953125,0.0
79673,79.673,19.15127182006836,1.1431884765625,7.788848876953125,0.0
80390,80.39,19.15280532836914,1.2401275634765625,7.791290283203125,0.0
81161,81.161,19.155969619750977,1.904327392578125,7.791290283203125,0.0
81943,81.943,19.157503128051758,1.904327392578125,7.7938995361328125,0.0
82742,82.742,19.157503128051758,1.75238037109375,7.79241943359375,0.0
83441,83.441,19.160572052001953,2.1409454345703125,7.7941741943359375,0.0
84336,84.336,19.16383171081543,2.5748748779296875,7.7960205078125,0.0
85029,85.029,19.168529510498047,3.5118560791015625,7.7960205078125,0.0
85830,85.83,19.168529510498047,3.5118560791015625,7.79638671875,0.0
86608,86.608,19.17313003540039,4.0023345947265625,7.7982330322265625,0.0
87314,87.314,19.181087493896484,4.7362518310546875,7.7966766357421875,0.0
88097,88.097,19.18415641784668,4.748138427734375,7.7966766357421875,0.0
88881,88.881,19.18568992614746,4.748138427734375,7.794647216796875,0.0
89679,89.679,19.18568992614746,3.647613525390625,7.7970733642578125,0.0
90378,90.378,19.188949584960938,3.52777099609375,7.7981414794921875,0.0
91179,91.179,19.192018508911133,3.469482421875,7.7988128662109375,0.0
91982,91.982,19.19824981689453,3.469482421875,7.7988128662109375,0.0
92780,92.78,19.19824981689453,4.59368896484375,7.800262451171875,0.0
93463,93.463,19.20304298400879,4.7389373779296875,7.7984161376953125,0.0
94239,94.239,19.206207275390625,4.2357940673828125,7.7972564697265625,0.0
94995,94.995,19.209274291992188,3.8242034912109375,7.7972564697265625,0.0
95789,95.789,19.209274291992188,3.8242034912109375,7.798431396484375,0.0
96600,96.6,19.212438583374023,3.6802978515625,7.79803466796875,0.0
97283,97.283,19.213972091674805,2.8593292236328125,7.798614501953125,0.0
98085,98.085,19.217041015625,2.93487548828125,7.798614501953125,0.0
98874,98.874,19.218767166137695,2.93487548828125,7.7993927001953125,0.0
99696,99.696,19.218767166137695,2.5708465576171875,7.800445556640625,0.0
100402,100.402,19.221834182739258,2.2126617431640625,7.799774169921875,0.0
101160,101.16,19.22336769104004,2.4103546142578125,7.7991943359375,0.0
101928,101.928,19.224998474121094,2.4103546142578125,7.7991943359375,0.0
102735,102.735,19.224998474121094,2.1016387939453125,7.8016204833984375,0.0
103434,103.434,19.224998474121094,1.36236572265625,7.80218505859375,0.0
104248,104.248,19.22336769104004,0.222900390625,7.802276611328125,0.0
105007,105.007,19.22336769104004,0.1429443359375,7.802276611328125,0.0
105799,105.799,19.221834182739258,0.1429443359375,7.801605224609375,0.0
106612,106.612,19.221834182739258,-0.40411376953125,7.79937744140625,0.0
107339,107.339,19.220300674438477,-0.7241363525390625,7.8010406494140625,0.0
108107,108.107,19.220300674438477,-0.5716094970703125,7.802093505859375,0.0
108907,108.907,19.221834182739258,-0.5716094970703125,7.802093505859375,0.0
109673,109.673,19.221834182739258,0.147735595703125,7.8023834228515625,0.0
110354,110.354,19.221834182739258,0.0931854248046875,7.804412841796875,0.0
111198,111.198,19.221834182739258,0.0580902099609375,7.803436279296875,0.0
111961,111.961,19.220300674438477,-0.6392059326171875,7.803436279296875,0.0
112732,112.732,19.220300674438477,-0.6392059326171875,7.8026580810546875,0.0
113413,113.413,19.220300674438477,-0.5826263427734375,7.8033447265625,0.0
114189,114.189,19.220300674438477,-0.379852294921875,7.8040313720703125,0.0
114930,114.93,19.220300674438477,-0.226654052734375,7.8040313720703125,0.0
115709,115.709,19.220300674438477,-0.226654052734375,7.8030548095703125,0.0
116522,116.522,19.218767166137695,-0.61273193359375,7.8028564453125,0.0
117229,117.229,19.217041015625,-0.996612548828125,7.8051910400390625,0.0
118026,118.026,19.217041015625,-0.648406982421875,7.8051910400390625,0.0
118837,118.837,19.217041015625,-0.4226226806640625,7.80450439453125,0.0
119681,119.681,19.217041015625,-0.4226226806640625,7.8021697998046875,0.0
120383,120.383,19.21550750732422,-0.8091888427734375,7.80120849609375,0.0
121148,121.148,19.21550750732422,-0.521759033203125,7.7997589111328125,0.0
121914,121.914,19.21550750732422,-0.33709716796875,7.7997589111328125,0.0
122798,122.798,19.21550750732422,-0.33709716796875,7.7995758056640625,0.0
123640,123.64,19.21550750732422,-0.223388671875,7.7996826171875,0.0
124335,124.335,19.21550750732422,-0.145355224609375,7.8000640869140625,0.0
125089,125.089,19.21550750732422,-0.0950164794921875,7.799957275390625,0.0
125865,125.865,19.21550750732422,-0.0950164794921875,7.799957275390625,0.0
126679,126.679,19.21550750732422,-0.1019287109375,7.7991943359375,0.0
127396,127.396,19.21550750732422,-0.0665435791015625,7.8010406494140625,0.0
128177,128.177,19.21550750732422,-0.044677734375,7.803070068359375,0.0
128939,128.939,19.21550750732422,-0.0306854248046875,7.803070068359375,0.0
129741,129.741,19.21550750732422,-0.0306854248046875,7.8025665283203125,0.0
130613,130.613,19.21550750732422,-0.021575927734375,7.8025665283203125,0.0
131301,131.301,19.212438583374023,-1.15960693359375,7.803253173828125,0.0
132084,132.084,19.212438583374023,-0.7464752197265625,7.803924560546875,0.0
132837,132.837,19.2108097076416,-0.7464752197265625,7.803924560546875,0.0
133637,133.637,19.2108097076416,-1.0504913330078125,7.80499267578125,0.0
134343,134.343,19.209274291992188,-1.1843414306640625,7.803924560546875,0.0
135164,135.164,19.209274291992188,-0.76239013671875,7.8047943115234375,0.0
