time_us,time_ms,angle,vel,vbat,set_volts
1114,1.114,17.843360900878906,-0.27410888671875,7.541229248046875,-2.0
1903,1.903,17.843360900878906,-0.176025390625,7.540252685546875,-2.0
2755,2.755,17.81996726989746,-7.892913818359375,7.371551513671875,-2.0
3619,3.619,17.73876190185547,-34.391204833984375,7.146240234375,-2.0
4551,4.551,17.59111785888672,-74.68217468261719,7.146240234375,-2.0
5498,5.498,17.39275360107422,-119.09765625,7.0846710205078125,-2.0
6442,6.442,17.15028953552246,-162.61996459960938,7.0922698974609375,-2.0
7395,7.395,16.881362915039062,-200.32858276367188,7.11590576171875,-2.0
8320,8.32,16.592206954956055,-200.32858276367188,7.148406982421875,-2.0
9306,9.306,16.274961471557617,-232.32139587402344,7.190277099609375,-2.0
10294,10.294,15.935089111328125,-263.03076171875,7.230255126953125,-2.0
11281,11.281,15.579397201538086,-290.3238220214844,7.26654052734375,-2.0
12240,12.24,15.203954696655273,-313.3289489746094,7.300628662109375,-2.0
13210,13.21,14.822665214538574,-335.5698547363281,7.3314208984375,-2.0
14169,14.169,14.426801681518555,-351.54962158203125,7.3563079833984375,-2.0
15139,15.139,14.426801681518555,-367.44580078125,7.3784027099609375,-2.0
15936,15.936,14.026529312133789,-379.41937255859375,7.3972320556640625,-2.0
16799,16.799,13.619928359985352,-389.3336181640625,7.4165496826171875,-2.0
17712,17.712,13.203165054321289,-399.1951904296875,7.4328460693359375,-2.0
18565,18.565,12.780840873718262,-407.5860595703125,7.4420928955078125,-2.0
19570,19.57,12.356311798095703,-413.00457763671875,7.452911376953125,-2.0
20533,20.533,11.923920631408691,-419.94122314453125,7.452911376953125,-2.0
21470,21.47,11.497857093811035,-422.655517578125,7.4677581787109375,-2.0
22489,22.489,11.061439514160156,-427.09515380859375,7.4735565185546875,-2.0
23495,23.495,10.624159812927246,-431.38739013671875,7.4735565185546875,-2.0
24439,24.439,10.187358856201172,-433.00518798828125,7.480712890625,-2.0
25392,25.392,9.74835205078125,-435.2615966796875,7.4862060546875,-2.0
26373,26.373,9.308483123779297,-436.9012145996094,7.490447998046875,-2.0
27318,27.318,8.861711502075195,-440.3914794921875,7.494598388671875,-2.0
28320,28.32,8.421746253967285,-440.30426025390625,7.4989471435546875,-2.0
29299,29.299,7.974015712738037,-443.0621643066406,7.501068115234375,-2.0
30289,30.289,7.534818172454834,-441.733642578125,7.5017242431640625,-2.0
31290,31.29,7.086703777313232,-443.541259765625,7.5037689208984375,-2.0
32316,32.316,6.639260768890381,-444.9445495605469,7.506378173828125,-2.0
33293,33.293,6.193160057067871,-445.1639099121094,7.509765625,-2.0
34286,34.286,5.741786003112793,-447.81915283203125,7.511199951171875,-2.0
35255,35.255,5.298657417297363,-447.81915283203125,7.5104217529296875,-2.0
36187,36.187,4.849776268005371,-446.05938720703125,7.5104217529296875,-2.0
37125,37.125,4.3993611335754395,-447.03009033203125,7.5110931396484375,-2.0
38125,38.125,4.3993611335754395,-448.3541259765625,7.5126495361328125,-2.0
39015,39.015,3.9528768062591553,-447.1830139160156,7.511474609375,-2.0
39805,39.805,3.5048584938049316,-447.4244384765625,7.5131378173828125,-2.0
40741,40.741,3.0588536262512207,-447.40313720703125,7.515838623046875,-2.0
41615,41.615,2.6033573150634766,-449.72943115234375,7.516021728515625,-2.0
42563,42.563,2.16003680229187,-447.8962097167969,7.5163726806640625,-2.0
43539,43.539,1.7062660455703735,-450.2126159667969,7.51641845703125,-2.0
44501,44.501,1.2637125253677368,-447.5037841796875,7.51641845703125,-2.0
45442,45.442,0.8125304579734802,-448.2047424316406,7.51751708984375,-2.0
46418,46.418,0.3622112274169922,-448.88037109375,7.5179595947265625,-2.0
47440,47.44,-0.08695753663778305,-448.7864990234375,7.517852783203125,-2.0
48433,48.433,-0.541399359703064,-450.669189453125,7.517181396484375,0.0
49441,49.441,-0.9690923690795898,-446.49932861328125,7.5152435302734375,0.0
50224,50.224,-1.3883485794067383,-446.49932861328125,7.5162200927734375,0.0
51017,51.017,-1.3883485794067383,-437.09478759765625,7.5254364013671875,0.0
51724,51.724,-1.727358341217041,-398.3741149902344,7.5311126708984375,0.0
52507,52.507,-1.9727952480316162,-347.13916015625,7.534088134765625,0.0
53325,53.325,-2.1737468242645264,-347.13916015625,7.534088134765625,0.0
54129,54.129,-2.1737468242645264,-294.44024658203125,7.5379638671875,0.0
54827,54.827,-2.330308675765991,-245.79339599609375,7.5358123779296875,0.0
55617,55.617,-2.4488086700439453,-200.44956970214844,7.5360107421875,0.0
56412,56.412,-2.5382587909698486,-160.02935791015625,7.5360107421875,0.0
57202,57.202,-2.6033573150634766,-160.02935791015625,7.537078857421875,0.0
58002,58.002,-2.6033573150634766,-126.8702392578125,7.5380401611328125,0.0
58688,58.688,-2.648801326751709,-96.72587585449219,7.54046630859375,0.0
59491,59.491,-2.68379545211792,-75.28388977050781,7.54046630859375,0.0
60249,60.249,-2.7142832279205322,-75.28388977050781,7.540740966796875,0.0
61042,61.042,-2.7142832279205322,-59.22319030761719,7.53948974609375,0.0
61753,61.753,-2.732499122619629,-44.0225830078125,7.5391998291015625,0.0
62535,62.535,-2.7417030334472656,-31.882080078125,7.5402679443359375,0.0
63305,63.305,-2.7508111000061035,-31.882080078125,7.5402679443359375,0.0
64122,64.122,-2.7508111000061035,-23.3768310546875,7.5393829345703125,0.0
64828,64.828,-2.7569470405578613,-17.596878051757812,7.5388031005859375,0.0
65647,65.647,-2.7600150108337402,-12.334457397460938,7.5395965576171875,0.0
66440,66.44,-2.763082981109619,-8.594528198242188,7.5395965576171875,0.0
67216,67.216,-2.7645211219787598,-8.594528198242188,7.5387115478515625,0.0
67974,67.974,-2.7645211219787598,-6.4149322509765625,7.538330078125,0.0
68679,68.679,-2.7645211219787598,-4.1238250732421875,7.5376434326171875,0.0
69476,69.476,-2.763082981109619,-2.150177001953125,7.5376434326171875,0.0
70240,70.24,-2.7600150108337402,-2.150177001953125,7.536773681640625,0.0
71057,71.057,-2.7600150108337402,-0.3670196533203125,7.537750244140625,0.0
71793,71.793,-2.7569470405578613,1.470794677734375,7.5390167236328125,0.0
72582,72.582,-2.7538790702819824,1.4976348876953125,7.538818359375,0.0
73339,73.339,-2.7508111000061035,1.4976348876953125,7.538818359375,0.0
74126,74.126,-2.7508111000061035,2.013824462890625,7.537933349609375,0.0
74796,74.796,-2.749277114868164,1.8227386474609375,7.539398193359375,0.0
75541,75.541,-2.749277114868164,1.169647216796875,7.537841796875,0.0
76311,76.311,-2.746209144592285,1.169647216796875,7.537841796875,0.0
77106,77.106,-2.746209144592285,1.835113525390625,7.53765869140625,0.0
77785,77.785,-2.746209144592285,1.1657257080078125,7.540863037109375,0.0
78536,78.536,-2.7447710037231445,1.3406982421875,7.5419158935546875,0.0
79346,79.346,-2.743237018585205,1.3954315185546875,7.5419158935546875,0.0
80127,80.127,-2.743237018585205,1.3954315185546875,7.5410308837890625,0.0
80805,80.805,-2.743237018585205,0.8245086669921875,7.5397796630859375,0.0
81564,81.564,-2.7417030334472656,0.998992919921875,7.5392913818359375,0.0
82321,82.321,-2.7417030334472656,0.63995361328125,7.5392913818359375,0.0
83115,83.115,-2.7417030334472656,0.63995361328125,7.540069580078125,0.0
83817,83.817,-2.7417030334472656,0.4054412841796875,7.5391998291015625,0.0
84650,84.65,-2.7417030334472656,0.226165771484375,7.538330078125,0.0
85421,85.421,-2.7417030334472656,0.145050048828125,7.538330078125,0.0
86191,86.191,-2.743237018585205,0.145050048828125,7.5407562255859375,0.0
87020,87.02,-2.743237018585205,-0.5634613037109375,7.5405426025390625,0.0
87718,87.718,-2.743237018585205,-0.360107421875,7.5381317138671875,0.0
88539,88.539,-2.743237018585205,-0.2351837158203125,7.539306640625,0.0
89314,89.314,-2.743237018585205,-0.1336517333984375,7.539306640625,0.0
90107,90.107,-2.743237018585205,-0.1336517333984375,7.5411376953125,0.0
90806,90.806,-2.743237018585205,0.0545501708984375,7.5392913818359375,0.0
91551,91.551,-2.743237018585205,0.033447265625,7.53997802734375,0.0
92302,92.302,-2.743237018585205,0.033447265625,7.53997802734375,0.0
93099,93.099,-2.743237018585205,0.0195465087890625,7.5408477783203125,0.0
93799,93.799,-2.743237018585205,0.01092529296875,7.5403594970703125,0.0
94596,94.596,-2.743237018585205,0.00958251953125,7.5419158935546875,0.0
95299,95.299,-2.743237018585205,0.032684326171875,7.5419158935546875,0.0
96092,96.092,-2.743237018585205,0.032684326171875,7.5426788330078125,0.0
96867,96.867,-2.743237018585205,0.01898193359375,7.5412139892578125,0.0
97585,97.585,-2.743237018585205,-0.004608154296875,7.540252685546875,0.0
98369,98.369,-2.7447710037231445,-0.5968170166015625,7.540252685546875,0.0
99156,99.156,-2.743237018585205,-0.5968170166015625,7.540740966796875,0.0
99949,99.949,-2.743237018585205,0.0810089111328125,7.5408477783203125,0.0
100662,100.662,-2.743237018585205,-0.0223388671875,7.5411376953125,0.0
101513,101.513,-2.743237018585205,-0.0164947509765625,7.5415191650390625,0.0
102311,102.311,-2.743237018585205,-0.024078369140625,7.5415191650390625,0.0
103110,103.11,-2.743237018585205,-0.024078369140625,7.5400543212890625,0.0
103855,103.855,-2.743237018585205,-0.0172576904296875,7.5393829345703125,0.0
104551,104.551,-2.743237018585205,0.0452423095703125,7.54046630859375,0.0
105310,105.31,-2.7447710037231445,-0.6359405517578125,7.54046630859375,0.0
106086,106.086,-2.7447710037231445,-0.6359405517578125,7.5409393310546875,0.0
106862,106.862,-2.743237018585205,0.1031494140625,7.540069580078125,0.0
107580,107.58,-2.743237018585205,0.07928466796875,7.5398712158203125,0.0
108351,108.351,-2.743237018585205,0.0491790771484375,7.5398712158203125,0.0
109132,109.132,-2.743237018585205,0.0491790771484375,7.5404510498046875,0.0
109903,109.903,-2.743237018585205,0.029815673828125,7.5399627685546875,0.0
110607,110.607,-2.743237018585205,0.0175323486328125,7.5397796630859375,0.0
111392,111.392,-2.743237018585205,0.00421142578125,7.5397796630859375,0.0
112163,112.163,-2.743237018585205,0.00421142578125,7.5396881103515625,0.0
112945,112.945,-2.743237018585205,0.0263519287109375,7.5401611328125,0.0
113645,113.645,-2.743237018585205,0.0154266357421875,7.540069580078125,0.0
114662,114.662,-2.743237018585205,0.008331298828125,7.5403594970703125,0.0
115495,115.495,-2.743237018585205,0.09844970703125,7.5403594970703125,0.0
116256,116.256,-2.743237018585205,0.0616455078125,7.5403594970703125,0.0
117026,117.026,-2.743237018585205,0.0616455078125,7.5399627685546875,0.0
117805,117.805,-2.7447710037231445,-0.5156097412109375,7.5402679443359375,0.0
118526,118.526,-2.743237018585205,0.2992095947265625,7.5393829345703125,0.0
119307,119.307,-2.743237018585205,0.190582275390625,7.5393829345703125,0.0
120109,120.109,-2.743237018585205,0.190582275390625,7.53948974609375,0.0
120915,120.915,-2.743237018585205,0.0878143310546875,7.5411376953125,0.0
121629,121.629,-2.743237018585205,0.054168701171875,7.5391845703125,0.0
122461,122.461,-2.7447710037231445,-0.565277099609375,7.5387115478515625,0.0
123231,123.231,-2.743237018585205,-0.565277099609375,7.5387115478515625,0.0
124019,124.019,-2.743237018585205,0.10650634765625,7.5413360595703125,0.0
124718,124.718,-2.743237018585205,0.066619873046875,7.5401611328125,0.0
125511,125.511,-2.743237018585205,0.0412139892578125,7.5396728515625,0.0
126255,126.255,-2.743237018585205,0.0249176025390625,7.5396728515625,0.0
127042,127.042,-2.743237018585205,0.0249176025390625,7.5404510498046875,0.0
127722,127.722,-2.743237018585205,0.01446533203125,7.540069580078125,0.0
128498,128.498,-2.743237018585205,0.00775146484375,7.5409393310546875,0.0
129230,129.23,-2.743237018585205,0.0722808837890625,7.5409393310546875,0.0
129995,129.995,-2.743237018585205,0.0722808837890625,7.540252685546875,0.0
130686,130.686,-2.743237018585205,0.124725341796875,7.5396728515625,0.0
131466,131.466,-2.743237018585205,0.0245361328125,7.5407562255859375,0.0
132229,132.229,-2.743237018585205,0.0019073486328125,7.5407562255859375,0.0
133036,133.036,-2.743237018585205,0.0019073486328125,7.5420074462890625,0.0
133705,133.705,-2.743237018585205,0.0,7.5421905517578125,0.0
134470,134.47,-2.743237018585205,0.0,7.541900634765625,0.0
135214,135.214,-2.743237018585205,0.0308685302734375,7.541900634765625,0.0
136004,136.004,-2.743237018585205,0.0308685302734375,7.540740966796875,0.0
136691,136.691,-2.743237018585205,0.0127410888671875,7.540069580078125,0.0
137549,137.549,-2.743237018585205,0.006805419921875,7.540069580078125,0.0
138305,138.305,-2.743237018585205,0.0026702880859375,7.540069580078125,0.0
139085,139.085,-2.743237018585205,0.0026702880859375,7.53997802734375,0.0
139896,139.896,-2.743237018585205,0.0,7.540557861328125,0.0
140625,140.625,-2.743237018585205,0.0,7.5392913818359375,0.0
141464,141.464,-2.743237018585205,-0.0069122314453125,7.538909912109375,0.0
142227,142.227,-2.743237018585205,-0.0069122314453125,7.538909912109375,0.0
143032,143.032,-2.743237018585205,-0.0069122314453125,7.539581298828125,0.0
143866,143.866,-2.743237018585205,-0.0069122314453125,7.5403594970703125,0.0
144589,144.589,-2.743237018585205,0.048797607421875,7.540740966796875,0.0
145433,145.433,-2.743237018585205,0.029998779296875,7.5411376953125,0.0
146178,146.178,-2.743237018585205,0.01763916015625,7.5411376953125,0.0
146955,146.955,-2.743237018585205,0.01763916015625,7.540740966796875,0.0
147666,147.666,-2.743237018585205,0.0092926025390625,7.540740966796875,0.0
2351765,2351.765,-2.743237018585205,-0.0088348388671875,7.541412353515625,2.0
2352728,2352.728,-2.740169048309326,1.2889251708984375,7.541229248046875,2.0
2353693,2353.693,-2.68379545211792,1.2889251708984375,7.4681396484375,2.0
2354703,2354.703,-2.554845094680786,20.4053955078125,7.257476806640625,2.0
2355665,2355.665,-2.3728766441345215,58.92970275878906,7.107025146484375,2.0
2356671,2356.671,-2.156968832015991,102.81759643554688,7.0957489013671875,2.0
2357671,2357.671,-1.9053000211715698,142.97894287109375,7.105804443359375,2.0
2358671,2358.671,-1.6168158054351807,181.7667236328125,7.1338043212890625,2.0
2359628,2359.628,-1.3056094646453857,220.36390686035156,7.176666259765625,2.0
2360606,2360.606,-0.9752283096313477,252.5008087158203,7.21478271484375,2.0
2361660,2361.66,-0.6269187927246094,280.1827392578125,7.2501220703125,2.0
2362626,2362.626,-0.2580922842025757,304.2139892578125,7.28594970703125,2.0
2363616,2363.616,0.12022574990987778,327.5087585449219,7.31732177734375,2.0
2364594,2364.594,0.511294960975647,345.9627685546875,7.347259521484375,2.0
2365551,2365.551,0.912143349647522,361.66046142578125,7.374176025390625,2.0
2366520,2366.52,0.912143349647522,375.76080322265625,7.3938446044921875,2.0
2367495,2367.495,1.3223873376846313,387.69940185546875,7.4092864990234375,2.0
2368291,2368.291,1.7356992959976196,396.8664855957031,7.42327880859375,2.0
2369173,2369.173,2.16003680229187,406.63739013671875,7.436798095703125,2.0
2370044,2370.044,2.580059766769409,411.3133239746094,7.4478912353515625,2.0
2370980,2370.98,3.0114920139312744,418.54693603515625,7.4573516845703125,2.0
2371925,2371.925,3.439089059829712,421.8312683105469,7.4667205810546875,2.0
2372918,2372.918,3.8708088397979736,425.4448547363281,7.4667205810546875,2.0
2373845,2373.845,4.305788516998291,428.8294677734375,7.474822998046875,2.0
2374802,2374.802,4.7394256591796875,433.8133850097656,7.481719970703125,2.0
2375759,2375.759,5.194346904754639,437.97412109375,7.4866485595703125,2.0
2376753,2376.753,5.631531238555908,437.7012634277344,7.4910430908203125,2.0
2377709,2377.709,6.076289653778076,440.3204345703125,7.4915924072265625,2.0
2378686,2378.686,6.515966892242432,440.1654052734375,7.4911956787109375,2.0
2379663,2379.663,6.960629940032959,441.8980407714844,7.495269775390625,2.0
2380686,2380.686,7.408552169799805,444.2113037109375,7.49981689453125,2.0
2381675,2381.675,7.853214740753174,444.2113037109375,7.5028076171875,2.0
2382632,2382.632,8.307369232177734,444.4212646484375,7.507354736328125,2.0
2383626,2383.626,8.752511024475098,447.847900390625,7.5102386474609375,2.0
2384579,2384.579,9.203885078430176,446.8094482421875,7.507598876953125,2.0
2385529,2385.529,9.6473970413208,448.64544677734375,7.50616455078125,2.0
2386551,2386.551,10.091772079467773,446.943115234375,7.506561279296875,2.0
2387548,2387.548,10.541707992553711,446.1102600097656,7.5074310302734375,2.0
2388541,2388.541,10.99461555480957,446.82635498046875,7.512176513671875,2.0
2389529,2389.529,11.447811126708984,448.88330078125,7.516815185546875,2.0
2390510,2390.51,11.893049240112305,450.9224548339844,7.516021728515625,2.0
2391504,2391.504,12.34394359588623,448.8781433105469,7.5118408203125,2.0
2392495,2392.495,12.790044784545898,449.6142578125,7.5096282958984375,2.0
2393464,2393.464,12.790044784545898,447.8211364746094,7.5086822509765625,2.0
2394402,2394.402,13.239309310913086,448.3683776855469,7.511016845703125,2.0
2395198,2395.198,13.690203666687012,449.9010009765625,7.516143798828125,2.0
2396159,2396.159,14.1394681930542,449.033935546875,7.5183563232421875,2.0
2397018,2397.018,14.596786499023438,452.50177001953125,7.51776123046875,2.0
2397947,2397.947,15.044804573059082,450.29632568359375,7.5148468017578125,2.0
2398865,2398.865,15.496370315551758,451.3392333984375,7.51263427734375,0.0
2399946,2399.946,15.919844627380371,448.1076965332031,7.51458740234375,0.0
2400724,2400.724,16.346195220947266,448.1076965332031,7.51458740234375,0.0
2401523,2401.523,16.346195220947266,436.80377197265625,7.52020263671875,0.0
2402252,2402.252,16.687986373901367,403.4388427734375,7.52813720703125,0.0
2402979,2402.979,16.95039176940918,355.266357421875,7.5329437255859375,0.0
2403762,2403.762,17.15652084350586,355.266357421875,7.5329437255859375,0.0
2404548,2404.548,17.15652084350586,300.078857421875,7.5317535400390625,0.0
2405257,2405.257,17.30886459350586,246.1798553466797,7.5308837890625,0.0
2406066,2406.066,17.433212280273438,201.74375915527344,7.5362396240234375,0.0
2406843,2406.843,17.525251388549805,163.63851928710938,7.5362396240234375,0.0
2407642,2407.642,17.595718383789062,163.63851928710938,7.5389251708984375,0.0
2408444,2408.444,17.595718383789062,130.57574462890625,7.538421630859375,0.0
2409137,2409.137,17.64451789855957,100.79196166992188,7.5391998291015625,0.0
2409970,2409.97,17.68219757080078,78.81126403808594,7.5398712158203125,0.0
2410740,2410.74,17.710575103759766,78.81126403808594,7.5398712158203125,0.0
2411530,2411.53,17.710575103759766,60.648529052734375,7.538421630859375,0.0
2412319,2412.319,17.73099708557129,46.636962890625,7.536773681640625,0.0
2412992,2412.992,17.7449951171875,34.87754821777344,7.5374603271484375,0.0
2413768,2413.768,17.756019592285156,26.337493896484375,7.5374603271484375,0.0
2414554,2414.554,17.756019592285156,26.337493896484375,7.538238525390625,0.0
2415385,2415.385,17.76378631591797,19.636489868164062,7.538818359375,0.0
2416084,2416.084,17.77164649963379,15.401260375976562,7.5376434326171875,0.0
2416888,2416.888,17.776344299316406,11.747894287109375,7.5376434326171875,0.0
2417669,2417.669,17.77787971496582,11.747894287109375,7.538330078125,0.0
2418461,2418.461,17.77787971496582,8.072280883789062,7.540069580078125,0.0
2419133,2419.133,17.77787971496582,5.1856231689453125,7.5404510498046875,0.0
2419886,2419.886,17.776344299316406,2.7725677490234375,7.5404510498046875,0.0
2420675,2420.675,17.774810791015625,2.7725677490234375,7.5399627685546875,0.0
2421458,2421.458,17.774810791015625,1.2222900390625,7.5392913818359375,0.0
2422163,2422.163,17.77164649963379,-0.421661376953125,7.5406494140625,0.0
2422965,2422.965,17.768579483032227,-0.808319091796875,7.53948974609375,0.0
2423709,2423.709,17.76531982421875,-0.808319091796875,7.53948974609375,0.0
2424492,2424.492,17.76531982421875,-2.244415283203125,7.5386199951171875,0.0
2425179,2425.179,17.762250900268555,-2.660980224609375,7.5406646728515625,0.0
2425951,2425.951,17.760717391967773,-2.27557373046875,7.5398712158203125,0.0
