time_us,time_ms,angle,vel,vbat,set_volts
1113,1.113,13.170280456542969,0.13958740234375,7.6812591552734375,0.0
2087,2.087,13.170280456542969,0.18157958984375,7.6798095703125,0.0
2979,2.979,13.168745994567871,-0.40142822265625,7.680206298828125,0.0
3915,3.915,13.170280456542969,0.30975341796875,7.6831207275390625,0.0
4884,4.884,13.168745994567871,-0.277557373046875,7.6831207275390625,0.0
5818,5.818,13.168745994567871,-0.1802520751953125,7.6819305419921875,0.0
6753,6.753,13.168745994567871,-0.09051513671875,7.67864990234375,0.0
7744,7.744,13.16721248626709,-0.606414794921875,7.678955078125,0.0
8724,8.724,13.165678024291992,-1.03448486328125,7.6804046630859375,0.0
9700,9.7,13.164144515991211,-0.666717529296875,7.6816558837890625,0.0
10771,10.771,13.164144515991211,-0.86785888671875,7.6801910400390625,0.0
11718,11.718,13.162610054016113,-1.163818359375,7.6794281005859375,0.0
12714,12.714,13.162610054016113,-0.762969970703125,7.6814727783203125,0.0
13666,13.666,13.161076545715332,-1.1024627685546875,7.68194580078125,0.0
14618,14.618,13.161076545715332,-1.1024627685546875,7.6823272705078125,0.0
15616,15.616,13.161076545715332,-0.710052490234375,7.683013916015625,0.0
16569,16.569,13.159542083740234,-0.46240234375,7.6826171875,0.0
17523,17.523,13.158008575439453,-0.78070068359375,7.683013916015625,0.0
18475,18.475,13.156474113464355,-1.090087890625,7.6838836669921875,0.0
19481,19.481,13.154940605163574,-1.2711029052734375,7.6844635009765625,0.0
20506,20.506,13.153406143188477,-1.3179779052734375,7.68475341796875,0.0
21445,21.445,13.153406143188477,-1.3483734130859375,7.683380126953125,0.0
22362,22.362,13.148804664611816,-2.5378875732421875,7.682220458984375,0.0
23153,23.153,13.145736694335938,-2.7837982177734375,7.6833038330078125,0.0
24018,24.018,13.142668724060059,-2.914093017578125,7.6839752197265625,0.0
24873,24.873,13.13960075378418,-2.3512115478515625,7.683197021484375,0.0
25837,25.837,13.138066291809082,-2.581024169921875,7.68426513671875,0.0
26825,26.825,13.1365327835083,-2.1906280517578125,7.68426513671875,0.0
27781,27.781,13.134998321533203,-1.9615936279296875,7.6856231689453125,0.0
28734,28.734,13.131930351257324,-2.3728790283203125,7.685516357421875,0.0
29717,29.717,13.127328872680664,-3.239105224609375,7.6852264404296875,0.0
30726,30.726,13.121288299560547,-4.298126220703125,7.685028076171875,0.0
31729,31.729,13.115152359008789,-5.021209716796875,7.683197021484375,0.0
32681,32.681,13.11208438873291,-4.2984161376953125,7.682037353515625,0.0
33660,33.66,13.109016418457031,-3.8411865234375,7.683502197265625,0.0
34660,34.66,13.102880477905273,-4.72332763671875,7.6846466064453125,0.0
35657,35.657,13.096744537353516,-5.2308807373046875,7.6849365234375,0.0
36648,36.648,13.090704917907715,-5.4705657958984375,7.685028076171875,0.0
37650,37.65,13.087636947631836,-4.5449981689453125,7.6856231689453125,0.0
38612,38.612,13.086102485656738,-3.406982421875,7.6863861083984375,0.0
39605,39.605,13.084568977355957,-2.79559326171875,7.686004638671875,0.0
40601,40.601,13.08303451538086,-2.384674072265625,7.6853179931640625,0.0
41572,41.572,13.07996654510498,-2.384674072265625,7.6863861083984375,0.0
42530,42.53,13.076898574829102,-2.67181396484375,7.68609619140625,0.0
43504,43.504,13.072392463684082,-2.8357696533203125,7.6847381591796875,0.0
44464,44.464,13.067790985107422,-3.4190673828125,7.6829071044921875,0.0
45483,45.483,13.064723014831543,-3.788177490234375,7.68377685546875,0.0
46486,46.486,13.061751365661621,-3.551849365234375,7.686309814453125,0.0
47449,47.449,13.058683395385742,-3.3924102783203125,7.68511962890625,0.0
48451,48.451,13.052547454833984,-3.3932647705078125,7.685516357421875,0.0
49452,49.452,13.043438911437988,-4.460723876953125,7.6857147216796875,0.0
50447,50.447,13.03730297088623,-6.181671142578125,7.6858062744140625,0.0
51443,51.443,13.03126335144043,-6.13238525390625,7.6867828369140625,0.0
52439,52.439,13.020524978637695,-6.1592254638671875,7.68658447265625,0.0
53454,53.454,13.013047218322754,-7.7860107421875,7.68658447265625,0.0
54438,54.438,13.008444786071777,-7.5528564453125,7.685516357421875,0.0
55396,55.396,13.003843307495117,-6.51300048828125,7.68377685546875,0.0
56373,56.373,12.997802734375,-5.872955322265625,7.6829986572265625,0.0
57355,57.355,12.997802734375,-5.9595184326171875,7.68475341796875,0.0
58389,58.389,12.991666793823242,-5.49530029296875,7.6854248046875,0.0
59489,59.489,12.98869514465332,-4.037445068359375,7.683380126953125,0.0
60502,60.502,12.987160682678223,-3.0315399169921875,7.68145751953125,0.0
61520,61.52,12.982559204101562,-3.0315399169921875,7.681854248046875,0.0
62492,62.492,12.973450660705566,-3.6544342041015625,7.6848602294921875,0.0
63511,63.511,12.965877532958984,-6.24810791015625,7.685516357421875,0.0
64520,64.52,12.958303451538086,-6.24810791015625,7.6842498779296875,0.0
65535,65.535,12.947565078735352,-8.302963256835938,7.683685302734375,0.0
66511,66.511,12.94008731842041,-8.302963256835938,7.68426513671875,0.0
67496,67.496,12.935484886169434,-7.9700927734375,7.683685302734375,0.0
68435,68.435,12.932416915893555,-6.8147125244140625,7.6840667724609375,0.0
69486,69.486,12.929348945617676,-5.5192718505859375,7.6865997314453125,0.0
70479,70.479,12.927910804748535,-4.6797943115234375,7.687744140625,0.0
71493,71.493,12.926377296447754,-3.4872283935546875,7.6876373291015625,0.0
72481,72.481,12.924842834472656,-2.72235107421875,7.6881256103515625,0.0
73466,73.466,12.921774864196777,-2.2606201171875,7.6882171630859375,0.0
74430,74.43,12.920241355895996,-2.5872650146484375,7.6859893798828125,0.0
75406,75.406,12.917173385620117,-2.2217864990234375,7.686004638671875,0.0
76408,76.408,12.917173385620117,-2.568756103515625,7.6863861083984375,0.0
77396,77.396,12.914200782775879,-1.652496337890625,7.6868743896484375,0.0
78379,78.379,12.90969467163086,-2.12054443359375,7.68658447265625,0.0
79405,79.405,12.90202522277832,-3.010833740234375,7.686187744140625,0.0
80400,80.4,12.894451141357422,-4.6701202392578125,7.68707275390625,0.0
81396,81.396,12.889848709106445,-5.7340240478515625,7.6864776611328125,0.0
82348,82.348,12.889848709106445,-5.302398681640625,7.6858978271484375,0.0
83302,83.302,12.880741119384766,-6.7612152099609375,7.686492919921875,0.0
84119,84.119,12.870099067687988,-8.096450805664062,7.6875457763671875,0.0
85030,85.03,12.86252498626709,-7.8932952880859375,7.686767578125,0.0
85896,85.896,12.851882934570312,-8.973892211914062,7.6858978271484375,0.0
86822,86.822,12.842775344848633,-8.426651000976562,7.6862945556640625,0.0
87772,87.772,12.838172912597656,-7.5784454345703125,7.68560791015625,0.0
88760,88.76,12.830598831176758,-7.6185302734375,7.6842498779296875,0.0
89706,89.706,12.81995677947998,-8.604782104492188,7.6842498779296875,0.0
90654,90.654,12.812382698059082,-8.24371337890625,7.6849365234375,0.0
91589,91.589,12.798673629760742,-10.112014770507812,7.6851348876953125,0.0
92579,92.579,12.788031578063965,-9.67913818359375,7.6841583251953125,0.0
93564,93.564,12.77585506439209,-10.461288452148438,7.6845550537109375,0.0
94560,94.56,12.76818561553955,-9.893325805664062,7.6856231689453125,0.0
95560,95.56,12.762145042419434,-8.617721557617188,7.6862030029296875,0.0
96557,96.557,12.751502990722656,-9.403121948242188,7.6844482421875,0.0
97561,97.561,12.743928909301758,-8.740921020507812,7.683868408203125,0.0
98584,98.584,12.736259460449219,-8.480148315429688,7.685821533203125,0.0
99568,99.568,12.724082946777344,-9.8057861328125,7.685516357421875,0.0
100569,100.569,12.716509819030762,-9.010223388671875,7.6841583251953125,0.0
101502,101.502,12.705867767333984,-9.582504272460938,7.684356689453125,0.0
102498,102.498,12.696759223937988,-9.398422241210938,7.6841583251953125,0.0
103450,103.45,12.692157745361328,-9.398422241210938,7.6859130859375,0.0
104401,104.401,12.687651634216309,-7.8147735595703125,7.6858062744140625,0.0
105376,105.376,12.68007755279541,-6.7696533203125,7.6847381591796875,0.0
106404,106.404,12.673941612243652,-7.1078033447265625,7.6857147216796875,0.0
107374,107.374,12.667901039123535,-6.6208648681640625,7.6868743896484375,0.0
108412,108.412,12.657258987426758,-5.8206024169921875,7.68658447265625,0.0
109421,109.421,12.648246765136719,-8.190505981445312,7.68463134765625,0.0
110422,110.422,12.634537696838379,-8.434707641601562,7.6854248046875,0.0
111418,111.418,12.622457504272461,-9.799652099609375,7.686492919921875,0.0
112394,112.394,12.610280990600586,-11.098648071289062,7.6868743896484375,0.0
113393,113.393,12.598200798034668,-11.585693359375,7.6875457763671875,0.0
114361,114.361,12.58755874633789,-11.765457153320312,7.688323974609375,0.0
115366,115.366,12.575478553771973,-11.474472045898438,7.686370849609375,0.0
116327,116.327,12.564837455749512,-11.57562255859375,7.6847381591796875,0.0
117336,117.336,12.554195404052734,-11.363449096679688,7.6849365234375,0.0
118370,118.37,12.548154830932617,-11.06988525390625,7.6862030029296875,0.0
119336,119.336,12.545183181762695,-9.17742919921875,7.6864776611328125,0.0
120287,120.287,12.545183181762695,-7.0028228759765625,7.6848297119140625,0.0
121241,121.241,12.542115211486816,-5.587432861328125,7.6845550537109375,0.0
122160,122.16,12.537609100341797,-5.1623382568359375,7.6858062744140625,0.0
122972,122.972,12.534541130065918,-4.34136962890625,7.68707275390625,0.0
123855,123.855,12.530035018920898,-4.4059906005859375,7.687744140625,0.0
124740,124.74,12.52706241607666,-3.9591217041015625,7.68841552734375,0.0
125684,125.684,12.5224609375,-4.1847991943359375,7.686859130859375,0.0
126762,126.762,12.513352394104004,-5.9343109130859375,7.6858978271484375,0.0
127831,127.831,12.502806663513184,-7.018646240234375,7.68609619140625,0.0
128707,128.707,12.493699073791504,-7.6357879638671875,7.686187744140625,0.0
129668,129.668,12.483057022094727,-8.574874877929688,7.6867828369140625,0.0
130644,130.644,12.47701644897461,-8.065109252929688,7.68658447265625,0.0
131643,131.643,12.469442367553711,-7.895416259765625,7.68658447265625,0.0
132570,132.57,12.463306427001953,-7.298309326171875,7.6862945556640625,0.0
133561,133.561,12.458800315856934,-6.3629608154296875,7.685516357421875,0.0
134514,134.514,12.454294204711914,-5.7344207763671875,7.685516357421875,0.0
135468,135.468,12.449692726135254,-5.2905120849609375,7.6849365234375,0.0
136445,136.445,12.443556785583496,-5.53460693359375,7.6844482421875,0.0
137477,137.477,12.436078071594238,-6.21636962890625,7.6858062744140625,0.0
138416,138.416,12.4284086227417,-6.21636962890625,7.6863861083984375,0.0
139411,139.411,12.41930103302002,-7.563201904296875,7.6875457763671875,0.0
140399,140.399,12.411726951599121,-7.563201904296875,7.68609619140625,0.0
141389,141.389,12.405686378479004,-7.5728912353515625,7.683868408203125,0.0
142336,142.336,12.401084899902344,-6.4461822509765625,7.686004638671875,0.0
143318,143.318,12.398016929626465,-6.2687225341796875,7.687164306640625,0.0
144272,144.272,12.394948959350586,-5.2273406982421875,7.687347412109375,0.0
145273,145.273,12.391976356506348,-4.484893798828125,7.6854095458984375,0.0
146268,146.268,12.388908386230469,-3.943878173828125,7.6858062744140625,0.0
147236,147.236,12.384306907653809,-3.5972900390625,7.6884307861328125,0.0
148219,148.219,12.379800796508789,-3.9004364013671875,7.68743896484375,0.0
149220,149.22,12.373664855957031,-4.12939453125,7.6865692138671875,0.0
150216,150.216,12.366090774536133,-4.8057861328125,7.68658447265625,0.0
151210,151.21,12.356982231140137,-5.73431396484375,7.6869659423828125,0.0
152212,152.212,12.3477783203125,-6.9410858154296875,7.686187744140625,0.0
153215,153.215,12.337136268615723,-7.828582763671875,7.6863861083984375,0.0
154209,154.209,12.329466819763184,-8.243438720703125,7.68707275390625,0.0
155210,155.21,12.329466819763184,-7.8878326416015625,7.68560791015625,0.0
156160,156.16,12.323330879211426,-7.1519012451171875,7.6857147216796875,0.0
157168,157.168,12.317291259765625,-7.2884368896484375,7.68658447265625,0.0
158141,158.141,12.311155319213867,-6.938201904296875,7.6852264404296875,0.0
158998,158.998,12.308087348937988,-5.5773773193359375,7.6867828369140625,0.0
159837,159.837,12.303484916687012,-5.243438720703125,7.6875457763671875,0.0
160727,160.727,12.297445297241211,-5.5987548828125,7.6839599609375,0.0
161611,161.611,12.289774894714355,-6.497955322265625,7.6835784912109375,0.0
162606,162.606,12.282105445861816,-6.34771728515625,7.6859130859375,0.0
163609,163.609,12.274435043334961,-6.760833740234375,7.6862945556640625,0.0
164610,164.61,12.266860961914062,-7.553619384765625,7.6862945556640625,0.0
165564,165.564,12.260725021362305,-6.9796295166015625,7.686676025390625,0.0
166614,166.614,12.256123542785645,-6.004302978515625,7.684539794921875,0.0
167587,167.587,12.249987602233887,-6.04034423828125,7.68658447265625,0.0
168569,168.569,12.24538516998291,-5.501922607421875,7.687835693359375,0.0
169570,169.57,12.239249229431152,-5.7734375,7.687835693359375,0.0
170514,170.514,12.236181259155273,-4.8238067626953125,7.6870574951171875,0.0
171454,171.454,12.231675148010254,-4.744232177734375,7.68609619140625,0.0
172448,172.448,12.224005699157715,-5.8350830078125,7.686187744140625,0.0
173438,173.438,12.214801788330078,-6.4556732177734375,7.686004638671875,0.0
174435,174.435,12.207131385803223,-7.3609161376953125,7.6874542236328125,0.0
175357,175.357,12.196490287780762,-8.620498657226562,7.68792724609375,0.0
176388,176.388,12.185751914978027,-9.371963500976562,7.6858978271484375,0.0
177356,177.356,12.178082466125488,-9.371963500976562,7.6854248046875,0.0
178304,178.304,12.168878555297852,-8.860671997070312,7.68560791015625,0.0
179255,179.255,12.161304473876953,-8.388961791992188,7.6868743896484375,0.0
180243,180.243,12.156702041625977,-7.941436767578125,7.68658447265625,0.0
181166,181.166,12.149032592773438,-7.288818359375,7.6849365234375,0.0
182160,182.16,12.149032592773438,-6.9297637939453125,7.6857147216796875,0.0
182966,182.966,12.139924049377441,-7.5872650146484375,7.68658447265625,0.0
183847,183.847,12.132254600524902,-7.5792236328125,7.6868743896484375,0.0
184699,184.699,12.121612548828125,-9.2491455078125,7.6873626708984375,0.0
185692,185.692,12.112408638000488,-9.18865966796875,7.686767578125,0.0
186614,186.614,12.103300094604492,-9.062484741210938,7.688232421875,0.0
187585,187.585,12.092658042907715,-9.601486206054688,7.688232421875,0.0
188523,188.523,12.086523056030273,-8.412261962890625,7.6849212646484375,0.0
189541,189.541,12.082016944885254,-7.098602294921875,7.6849212646484375,0.0
190476,190.476,12.074346542358398,-6.7501983642578125,7.6847381591796875,0.0
191421,191.421,12.068306922912598,-7.01519775390625,7.6847381591796875,0.0
192402,192.402,12.06217098236084,-6.819610595703125,7.685333251953125,0.0
193398,193.398,12.05766487121582,-6.0635528564453125,7.6863861083984375,0.0
194351,194.351,12.048460960388184,-6.0635528564453125,7.6873626708984375,0.0
195382,195.382,12.043954849243164,-6.290191650390625,7.6863861083984375,0.0
196371,196.371,12.039448738098145,-5.6460113525390625,7.6864776611328125,0.0
197369,197.369,12.037914276123047,-4.1549835205078125,7.6862945556640625,0.0
198376,198.376,12.036380767822266,-3.1512908935546875,7.686004638671875,0.0
199342,199.342,12.034846305847168,-2.55169677734375,7.6849365234375,0.0
200339,200.339,12.034846305847168,-1.6413726806640625,7.6852264404296875,0.0
201335,201.335,12.033312797546387,-1.5556640625,7.68804931640625,0.0
202287,202.287,12.031778335571289,-1.676361083984375,7.687255859375,0.0
203290,203.29,12.031778335571289,-1.1635284423828125,7.685699462890625,0.0
204286,204.286,12.030244827270508,-1.1635284423828125,7.68658447265625,0.0
205295,205.295,12.030244827270508,-0.73095703125,7.687164306640625,0.0
206266,206.266,12.02727222442627,-0.909759521484375,7.6874542236328125,0.0
207258,207.258,12.025738716125488,-1.689208984375,7.687164306640625,0.0
208235,208.235,12.02420425415039,-1.7100067138671875,7.6875457763671875,0.0
209188,209.188,12.02267074584961,-1.67510986328125,7.6864776611328125,0.0
210142,210.142,12.021232604980469,-1.7010040283203125,7.685516357421875,0.0
211145,211.145,12.021232604980469,-1.7025299072265625,7.6878509521484375,0.0
212178,212.178,12.019698143005371,-1.0958404541015625,7.686676025390625,0.0
213176,213.176,12.01816463470459,-1.1761932373046875,7.6849365234375,0.0
214191,214.191,12.015192031860352,-1.2182769775390625,7.686004638671875,0.0
215181,215.181,12.01365852355957,-1.8830718994140625,7.68658447265625,0.0
216157,216.157,12.009056091308594,-1.769256591796875,7.6863861083984375,0.0
217154,217.154,12.004454612731934,-2.801727294921875,7.6868743896484375,0.0
218133,218.133,12.000044822692871,-3.4981536865234375,7.687835693359375,0.0
219148,219.148,11.994004249572754,-3.8428192138671875,7.688323974609375,0.0
220126,220.126,11.987964630126953,-4.6890106201171875,7.6877288818359375,0.0
221123,221.123,11.981828689575195,-4.6599578857421875,7.68792724609375,0.0
222101,222.101,11.972816467285156,-5.76251220703125,7.6869659423828125,0.0
223117,223.117,11.965242385864258,-6.8990936279296875,7.68560791015625,0.0
224096,224.096,11.965242385864258,-6.52239990234375,7.68658447265625,0.0
225103,225.103,11.949997901916504,-6.9250640869140625,7.687255859375,0.0
226092,226.092,11.949997901916504,-7.8131561279296875,7.6870574951171875,0.0
227065,227.065,11.943958282470703,-7.2146148681640625,7.686676025390625,0.0
227870,227.87,11.937918663024902,-6.2525177001953125,7.68609619140625,0.0
228753,228.753,11.930344581604004,-7.2682952880859375,7.685516357421875,0.0
229657,229.657,11.921236038208008,-7.8444976806640625,7.6854248046875,0.0
230634,230.634,11.912223815917969,-8.234039306640625,7.6862945556640625,0.0
231542,231.542,11.898513793945312,-9.552871704101562,7.687255859375,0.0
232495,232.495,11.889406204223633,-9.864089965820312,7.687255859375,0.0
233468,233.468,11.878764152526855,-10.20635986328125,7.6869659423828125,0.0
234451,234.451,11.86965560913086,-9.251739501953125,7.6859893798828125,0.0
235416,235.416,11.86658763885498,-7.5004119873046875,7.686492919921875,0.0
236374,236.374,11.863615989685059,-5.87725830078125,7.6880340576171875,0.0
237346,237.346,11.8574800491333,-6.0222320556640625,7.687744140625,0.0
238372,238.372,11.85287857055664,-5.4873504638671875,7.685699462890625,0.0
239318,239.318,11.846742630004883,-5.68963623046875,7.685516357421875,0.0
240324,240.324,11.840702056884766,-5.2808380126953125,7.686492919921875,0.0
241272,241.272,11.831594467163086,-7.216339111328125,7.6873626708984375,0.0
242228,242.228,11.820856094360352,-7.216339111328125,7.6887054443359375,0.0
243169,243.169,11.811652183532715,-7.8381805419921875,7.6882171630859375,0.0
244185,244.185,11.801010131835938,-8.894027709960938,7.6869659423828125,0.0
245192,245.192,11.79487419128418,-8.95672607421875,7.6854095458984375,0.0
246200,246.2,11.785670280456543,-8.384658813476562,7.6839599609375,0.0
247167,247.167,11.774836540222168,-8.729415893554688,7.68707275390625,0.0
248123,248.123,11.765632629394531,-8.939666748046875,7.687744140625,0.0
249102,249.102,11.753265380859375,-8.94830322265625,7.684539794921875,0.0
250148,250.148,11.74252700805664,-10.758590698242188,7.6841583251953125,0.0
251096,251.096,11.728529930114746,-10.771240234375,7.6856231689453125,0.0
252116,252.116,11.716161727905273,-11.947525024414062,7.6862945556640625,0.0
253071,253.071,11.716161727905273,-11.488479614257812,7.6875457763671875,0.0
254057,254.057,11.691330909729004,-12.438583374023438,7.6891021728515625,0.0
255046,255.046,11.691330909729004,-11.880218505859375,7.6887054443359375,0.0
256028,256.028,11.675799369812012,-13.1845703125,7.6864776611328125,0.0
256837,256.837,11.663335800170898,-13.531158447265625,7.6852264404296875,0.0
257776,257.776,11.649337768554688,-13.066558837890625,7.687164306640625,0.0
258652,258.652,11.639846801757812,-11.682907104492188,7.687835693359375,0.0
