time_us,time_ms,angle,vel,vbat,set_volts
1096,1.096,0.0,0.0044097900390625,7.6523895263671875,0.20000000298023224
1890,1.89,0.0,9.1552734375e-05,7.652679443359375,0.20000000298023224
2800,2.8,0.00311279296875,0.5977630615234375,7.64898681640625,0.20000000298023224
3767,3.767,0.015625,4.900299072265625,7.6450347900390625,0.20000000298023224
4738,4.738,0.03619384765625,11.109283447265625,7.6450347900390625,0.20000000298023224
5689,5.689,0.06597900390625,17.45440673828125,7.6461181640625,0.20000000298023224
6646,6.646,0.1005859375,23.63250732421875,7.648834228515625,0.20000000298023224
7573,7.573,0.1368408203125,23.63250732421875,7.6477508544921875,0.20000000298023224
8549,8.549,0.17279052734375,31.079696655273438,7.649017333984375,0.20000000298023224
9549,9.549,0.207275390625,32.364227294921875,7.6503753662109375,0.20000000298023224
10585,10.585,0.24639892578125,34.7796630859375,7.649200439453125,0.20000000298023224
11580,11.58,0.28369140625,35.735137939453125,7.6500701904296875,0.20000000298023224
12532,12.532,0.32244873046875,36.850341796875,7.65191650390625,0.20000000298023224
13518,13.518,0.35943603515625,36.88140869140625,7.6501617431640625,0.20000000298023224
14546,14.546,0.39935302734375,37.997955322265625,7.6462860107421875,0.20000000298023224
15547,15.547,0.440673828125,39.251983642578125,7.645050048828125,0.20000000298023224
16504,16.504,0.48046875,39.447479248046875,7.64892578125,0.20000000298023224
17481,17.481,0.52166748046875,39.447479248046875,7.6509552001953125,0.20000000298023224
18442,18.442,0.56292724609375,40.05445861816406,7.6489105224609375,0.20000000298023224
19420,19.42,0.60443115234375,40.53880310058594,7.646484375,0.20000000298023224
20499,20.499,0.64599609375,41.10081481933594,7.6448516845703125,0.20000000298023224
21495,21.495,0.686279296875,40.115814208984375,7.6490325927734375,0.20000000298023224
22489,22.489,0.72357177734375,39.668365478515625,7.6521148681640625,0.20000000298023224
23477,23.477,0.76416015625,40.055694580078125,7.65093994140625,0.20000000298023224
24451,24.451,0.80792236328125,40.807830810546875,7.651031494140625,0.20000000298023224
25445,25.445,0.850341796875,40.807830810546875,7.652496337890625,0.20000000298023224
26429,26.429,0.892822265625,41.19294738769531,7.651031494140625,0.20000000298023224
27380,27.38,0.93670654296875,42.17863464355469,7.649871826171875,0.20000000298023224
28318,28.318,0.9835205078125,42.97563171386719,7.6517181396484375,0.20000000298023224
29305,29.305,1.0272216796875,43.91212463378906,7.652099609375,0.20000000298023224
30334,30.334,1.07061767578125,44.31163024902344,7.6512298583984375,0.20000000298023224
31330,31.33,1.11236572265625,43.990936279296875,7.651031494140625,0.20000000298023224
32318,32.318,1.15240478515625,42.65483093261719,7.6511383056640625,0.20000000298023224
33296,33.296,1.19232177734375,42.18132019042969,7.648895263671875,0.20000000298023224
34315,34.315,1.23211669921875,41.25709533691406,7.64813232421875,0.20000000298023224
35309,35.309,1.23211669921875,40.78865051269531,7.6507568359375,0.20000000298023224
36255,36.255,1.27178955078125,40.47236633300781,7.6517181396484375,0.20000000298023224
37250,37.25,1.31597900390625,41.795135498046875,7.6522064208984375,0.20000000298023224
38204,38.204,1.360107421875,42.652923583984375,7.650360107421875,0.20000000298023224
39054,39.054,1.40264892578125,42.728668212890625,7.6522064208984375,0.20000000298023224
39928,39.928,1.44830322265625,43.22471618652344,7.6555938720703125,0.20000000298023224
40799,40.799,1.495361328125,45.241424560546875,7.654510498046875,0.20000000298023224
41761,41.761,1.53802490234375,44.27626037597656,7.64801025390625,0.20000000298023224
42687,42.687,1.57916259765625,43.14984130859375,7.6477508544921875,0.20000000298023224
43636,43.636,1.61712646484375,41.55314636230469,7.6477508544921875,0.20000000298023224
44582,44.582,1.6583251953125,41.22544860839844,7.6525115966796875,0.20000000298023224
45526,45.526,1.699462890625,41.14128112792969,7.651031494140625,0.20000000298023224
46513,46.513,1.73895263671875,40.63218688964844,7.6538543701171875,0.20000000298023224
47495,47.495,1.78009033203125,40.867462158203125,7.651702880859375,0.20000000298023224
48488,48.488,1.82403564453125,42.02033996582031,7.6507415771484375,0.20000000298023224
49517,49.517,1.87109375,43.20831298828125,7.6532745361328125,0.20000000298023224
50504,50.504,1.91473388671875,43.963226318359375,7.651611328125,0.20000000298023224
51511,51.511,1.9599609375,43.75373840332031,7.650848388671875,0.20000000298023224
52482,52.482,2.00360107421875,44.266387939453125,7.6517181396484375,0.20000000298023224
53414,53.414,2.04559326171875,43.436309814453125,7.6513214111328125,0.20000000298023224
54402,54.402,2.08612060546875,42.41554260253906,7.6500701904296875,0.20000000298023224
55377,55.377,2.12371826171875,40.69441223144531,7.650360107421875,0.20000000298023224
56377,56.377,2.16436767578125,40.66383361816406,7.6505584716796875,0.20000000298023224
57377,57.377,2.20672607421875,40.66383361816406,7.6532745361328125,0.20000000298023224
58355,58.355,2.24615478515625,41.384613037109375,7.6541290283203125,0.20000000298023224
59352,59.352,2.28717041015625,40.70562744140625,7.6529693603515625,0.20000000298023224
60312,60.312,2.33294677734375,40.82585144042969,7.6488037109375,0.20000000298023224
61280,61.28,2.38031005859375,42.67698669433594,7.6471710205078125,0.20000000298023224
62250,62.25,2.424560546875,44.46656799316406,7.6508636474609375,0.20000000298023224
63233,63.233,2.46875,44.37980651855469,7.649200439453125,0.20000000298023224
64214,64.214,2.46875,43.66017150878906,7.6497802734375,0.20000000298023224
65131,65.131,2.5113525390625,43.78623962402344,7.6522064208984375,0.20000000298023224
65981,65.981,2.5538330078125,42.763275146484375,7.65142822265625,0.20000000298023224
66858,66.858,2.59295654296875,41.93482971191406,7.652496337890625,0.20000000298023224
67703,67.703,2.63360595703125,41.40473937988281,7.6534576416015625,0.20000000298023224
68657,68.657,2.6724853515625,40.61090087890625,7.652099609375,0.20000000298023224
69602,69.602,2.71441650390625,41.158050537109375,7.652099609375,0.20000000298023224
70523,70.523,2.7578125,41.3961181640625,7.6506500244140625,0.20000000298023224
71505,71.505,2.7998046875,41.499176025390625,7.651519775390625,0.20000000298023224
72455,72.455,2.84356689453125,42.300201416015625,7.650543212890625,0.20000000298023224
73437,73.437,2.8873291015625,43.41654968261719,7.6495819091796875,0.20000000298023224
74429,74.429,2.93011474609375,43.118011474609375,7.6506500244140625,0.20000000298023224
75417,75.417,2.9715576171875,42.508056640625,7.6512298583984375,0.20000000298023224
76392,76.392,3.0147705078125,42.274505615234375,7.6512298583984375,0.20000000298023224
77392,77.392,3.0582275390625,42.61140441894531,7.6512298583984375,0.20000000298023224
78410,78.41,3.10028076171875,42.92826843261719,7.6501617431640625,0.20000000298023224
79412,79.412,3.14093017578125,42.126861572265625,7.649871826171875,0.20000000298023224
80407,80.407,3.18157958984375,41.71076965332031,7.650848388671875,0.20000000298023224
81383,81.383,3.22686767578125,43.10102844238281,7.654632568359375,0.20000000298023224
82370,82.37,3.272216796875,43.10102844238281,7.6544189453125,0.20000000298023224
83380,83.38,3.3140869140625,43.10467529296875,7.653839111328125,0.20000000298023224
84380,84.38,3.35601806640625,42.63758850097656,7.6514129638671875,0.20000000298023224
85355,85.355,3.39935302734375,42.86375427246094,7.648223876953125,0.20000000298023224
86355,86.355,3.4423828125,42.95185852050781,7.6514434814453125,0.20000000298023224
87336,87.336,3.4837646484375,42.47373962402344,7.6513214111328125,0.20000000298023224
88358,88.358,3.5250244140625,41.516815185546875,7.652099609375,0.20000000298023224
89365,89.365,3.56756591796875,41.849212646484375,7.6506500244140625,0.20000000298023224
90365,90.365,3.61016845703125,42.589935302734375,7.6492919921875,0.20000000298023224
91365,91.365,3.6527099609375,42.60115051269531,7.650177001953125,0.20000000298023224
92302,92.302,3.6937255859375,42.60115051269531,7.649688720703125,0.20000000298023224
93290,93.29,3.73797607421875,42.290618896484375,7.650848388671875,0.20000000298023224
94290,94.29,3.78070068359375,42.290618896484375,7.6478424072265625,0.20000000298023224
95263,95.263,3.8206787109375,42.964508056640625,7.6471710205078125,0.20000000298023224
96201,96.201,3.8592529296875,41.96598815917969,7.649505615234375,0.20000000298023224
97128,97.128,3.8592529296875,40.83131408691406,7.651336669921875,0.20000000298023224
98084,98.084,3.9010009765625,41.26380920410156,7.6532745361328125,0.20000000298023224
99056,99.056,3.94464111328125,42.196563720703125,7.6503448486328125,0.20000000298023224
99916,99.916,3.9869384765625,42.312957763671875,7.6489105224609375,0.20000000298023224
100759,100.759,4.029296875,42.353607177734375,7.6493072509765625,0.20000000298023224
101611,101.611,4.0732421875,42.906890869140625,7.6510467529296875,0.20000000298023224
102566,102.566,4.121826171875,44.40483093261719,7.65093994140625,0.20000000298023224
103523,103.523,4.16552734375,44.63433837890625,7.65093994140625,0.20000000298023224
104470,104.47,4.20904541015625,44.21192932128906,7.6506500244140625,0.20000000298023224
105401,105.401,4.2508544921875,42.83642578125,7.65240478515625,0.20000000298023224
106370,106.37,4.2923583984375,42.313232421875,7.65374755859375,0.20000000298023224
107386,107.386,4.33209228515625,41.2960205078125,7.6524810791015625,0.20000000298023224
108330,108.33,4.3701171875,40.68367004394531,7.651123046875,0.20000000298023224
109308,109.308,4.41119384765625,40.29164123535156,7.652099609375,0.20000000298023224
110296,110.296,4.45355224609375,40.95661926269531,7.6496734619140625,0.20000000298023224
111293,111.293,4.49603271484375,42.051025390625,7.648223876953125,0.20000000298023224
112293,112.293,4.53839111328125,42.051025390625,7.6470794677734375,0.20000000298023224
113232,113.232,4.58404541015625,42.22389221191406,7.6487274169921875,0.20000000298023224
114227,114.227,4.6297607421875,43.52537536621094,7.6526031494140625,0.20000000298023224
115224,115.224,4.674072265625,44.47001647949219,7.6523895263671875,0.20000000298023224
116228,116.228,4.7138671875,42.830291748046875,7.649383544921875,0.20000000298023224
117301,117.301,4.753662109375,41.20100402832031,7.6511383056640625,0.20000000298023224
118299,118.299,4.79339599609375,41.294769287109375,7.651519775390625,0.20000000298023224
119293,119.293,4.83453369140625,41.334075927734375,7.6511383056640625,0.20000000298023224
120224,120.224,4.874267578125,41.334075927734375,7.6537628173828125,0.20000000298023224
121202,121.202,4.91375732421875,40.79450988769531,7.652099609375,0.20000000298023224
122202,122.202,4.957763671875,40.348876953125,7.6508331298828125,0.20000000298023224
123202,123.202,5.003173828125,41.70079040527344,7.6527862548828125,0.20000000298023224
124159,124.159,5.04864501953125,43.09576416015625,7.6551971435546875,0.20000000298023224
125141,125.141,5.0926513671875,43.96246337890625,7.6530609130859375,0.20000000298023224
126094,126.094,5.0926513671875,44.034942626953125,7.6501617431640625,0.20000000298023224
126987,126.987,5.13653564453125,44.02430725097656,7.6500701904296875,0.20000000298023224
127852,127.852,5.17901611328125,43.40083312988281,7.650360107421875,0.20000000298023224
128763,128.763,5.2200927734375,42.49847412109375,7.6495819091796875,0.20000000298023224
129619,129.619,5.25958251953125,41.4952392578125,7.649688720703125,0.20000000298023224
130526,130.526,5.29913330078125,40.26786804199219,7.650848388671875,0.20000000298023224
131458,131.458,5.3402099609375,41.042236328125,7.650848388671875,0.20000000298023224
132383,132.383,5.3812255859375,41.099578857421875,7.6506500244140625,0.20000000298023224
133388,133.388,5.42083740234375,40.581085205078125,7.6506500244140625,0.20000000298023224
134352,134.352,5.46484375,41.8580322265625,7.6488037109375,0.20000000298023224
135381,135.381,5.51202392578125,43.71319580078125,7.6509552001953125,0.20000000298023224
136346,136.346,5.5576171875,44.39418029785156,7.653167724609375,0.20000000298023224
137335,137.335,5.60040283203125,43.226348876953125,7.6486968994140625,0.20000000298023224
138299,138.299,5.6417236328125,43.00276184082031,7.64910888671875,0.20000000298023224
139287,139.287,5.68475341796875,43.007171630859375,7.6494903564453125,0.20000000298023224
140281,140.281,5.72637939453125,42.512847900390625,7.650177001953125,0.20000000298023224
141274,141.274,5.76666259765625,41.78065490722656,7.65240478515625,0.20000000298023224
142230,142.23,5.806884765625,41.377410888671875,7.651123046875,0.20000000298023224
143224,143.224,5.85040283203125,41.639923095703125,7.6480255126953125,0.20000000298023224
144180,144.18,5.89404296875,42.92414855957031,7.648529052734375,0.20000000298023224
145169,145.169,5.93603515625,42.6090087890625,7.6521148681640625,0.20000000298023224
146193,146.193,5.981201171875,42.6090087890625,7.6492919921875,0.20000000298023224
147139,147.139,6.02777099609375,43.57493591308594,7.6431884765625,0.20000000298023224
148149,148.149,6.06976318359375,44.11480712890625,7.6537933349609375,0.20000000298023224
149160,149.16,6.1116943359375,43.27850341796875,7.6557769775390625,0.20000000298023224
150156,150.156,6.1536865234375,42.91819763183594,7.6487884521484375,0.20000000298023224
151156,151.156,6.1956787109375,42.91819763183594,7.651153564453125,0.20000000298023224
152140,152.14,6.23785400390625,42.659637451171875,7.6517181396484375,0.20000000298023224
153135,153.135,6.27850341796875,42.428863525390625,7.6533660888671875,0.20000000298023224
154127,154.127,6.3193359375,41.78190612792969,7.650146484375,0.20000000298023224
155122,155.122,6.3648681640625,41.365142822265625,7.649871826171875,0.20000000298023224
156153,156.153,6.41046142578125,43.998504638671875,7.653564453125,0.20000000298023224
157140,157.14,6.4544677734375,43.41923522949219,7.65325927734375,0.20000000298023224
158140,158.14,6.49530029296875,42.94993591308594,7.6508331298828125,0.20000000298023224
159140,159.14,6.53900146484375,42.94993591308594,7.650360107421875,0.20000000298023224
160086,160.086,6.580810546875,43.28271484375,7.655792236328125,0.20000000298023224
161087,161.087,6.62261962890625,42.809967041015625,7.6539306640625,0.20000000298023224
162088,162.088,6.66259765625,41.86676025390625,7.650054931640625,0.20000000298023224
163041,163.041,6.70550537109375,41.68995666503906,7.6495819091796875,0.20000000298023224
163998,163.998,6.748291015625,42.19004821777344,7.6526947021484375,0.20000000298023224
164985,164.985,6.78948974609375,42.51371765136719,7.6545257568359375,0.20000000298023224
166014,166.014,6.8323974609375,42.06752014160156,7.65228271484375,0.20000000298023224
166980,166.98,6.875244140625,41.73991394042969,7.6527862548828125,0.20000000298023224
167987,167.987,6.919921875,42.702301025390625,7.654327392578125,0.20000000298023224
168976,168.976,6.95855712890625,42.860870361328125,7.6542205810546875,0.20000000298023224
169952,169.952,6.99737548828125,41.911712646484375,7.65130615234375,0.20000000298023224
170952,170.952,6.99737548828125,40.90399169921875,7.6572418212890625,0.20000000298023224
171754,171.754,7.03955078125,41.47703552246094,7.65692138671875,0.20000000298023224
172610,172.61,7.08184814453125,41.70799255371094,7.6490631103515625,0.20000000298023224
173480,173.48,7.125732421875,42.58964538574219,7.650848388671875,0.20000000298023224
174399,174.399,7.16802978515625,42.03923034667969,7.649871826171875,0.20000000298023224
175380,175.38,7.21038818359375,42.73335266113281,7.649871826171875,0.20000000298023224
176327,176.327,7.2557373046875,43.65010070800781,7.648223876953125,0.20000000298023224
177300,177.3,7.3026123046875,44.80078125,7.6527099609375,0.20000000298023224
178256,178.256,7.3460693359375,44.38267517089844,7.6529693603515625,0.20000000298023224
179206,179.206,7.3863525390625,42.91398620605469,7.6490936279296875,0.20000000298023224
180291,180.291,7.42791748046875,42.47526550292969,7.650665283203125,0.20000000298023224
181386,181.386,7.4693603515625,42.14564514160156,7.652496337890625,0.20000000298023224
182379,182.379,7.50762939453125,40.80792236328125,7.652496337890625,0.20000000298023224
183305,183.305,7.548828125,40.68702697753906,7.6495819091796875,0.20000000298023224
184262,184.262,7.59161376953125,41.21232604980469,7.6472625732421875,0.20000000298023224
185288,185.288,7.6341552734375,42.27699279785156,7.6477508544921875,0.20000000298023224
186284,186.284,7.6767578125,42.45829772949219,7.65289306640625,0.20000000298023224
187397,187.397,7.7208251953125,43.17793273925781,7.6513214111328125,0.20000000298023224
188382,188.382,7.76788330078125,44.079620361328125,7.64764404296875,0.20000000298023224
189387,189.387,7.8121337890625,44.1453857421875,7.648040771484375,0.20000000298023224
190343,190.343,7.85162353515625,42.77046203613281,7.648529052734375,0.20000000298023224
191293,191.293,7.89117431640625,41.1361083984375,7.648529052734375,0.20000000298023224
192243,192.243,7.9307861328125,41.03639221191406,7.6503753662109375,0.20000000298023224
193199,193.199,7.9720458984375,41.06697082519531,7.654144287109375,0.20000000298023224
194163,194.163,8.01153564453125,40.4132080078125,7.64947509765625,0.20000000298023224
195188,195.188,8.05255126953125,40.688568115234375,7.6490020751953125,0.20000000298023224
196179,196.179,8.09515380859375,41.47846984863281,7.6514434814453125,0.20000000298023224
197149,197.149,8.14208984375,42.881866455078125,7.651611328125,0.20000000298023224
198271,198.271,8.1859130859375,43.6781005859375,7.6491851806640625,0.20000000298023224
199338,199.338,8.231201171875,44.25209045410156,7.6471710205078125,0.20000000298023224
200365,200.365,8.276123046875,44.01509094238281,7.650665283203125,0.20000000298023224
201424,201.424,8.3182373046875,43.81280517578125,7.6490936279296875,0.20000000298023224
202385,202.385,8.35888671875,42.66796875,7.6472625732421875,0.20000000298023224
203352,203.352,8.39788818359375,41.4268798828125,7.6494140625,0.20000000298023224
204391,204.391,8.43701171875,40.70025634765625,7.6478424072265625,0.20000000298023224
205458,205.458,8.47930908203125,40.66181945800781,7.6487274169921875,0.20000000298023224
206372,206.372,8.52020263671875,40.65855407714844,7.6526947021484375,0.20000000298023224
207299,207.299,8.561279296875,41.045013427734375,7.6526947021484375,0.20000000298023224
208253,208.253,8.60382080078125,42.06080627441406,7.652740478515625,0.20000000298023224
209178,209.178,8.65118408203125,44.03436279296875,7.6498260498046875,0.20000000298023224
210143,210.143,8.697021484375,44.6864013671875,7.6506500244140625,0.20000000298023224
211118,211.118,8.7413330078125,43.98451232910156,7.6544342041015625,0.20000000298023224
212111,212.111,8.782470703125,43.40696716308594,7.653350830078125,0.20000000298023224
213068,213.068,8.82647705078125,43.02854919433594,7.65802001953125,0.20000000298023224
214082,214.082,8.8671875,42.71649169921875,7.658477783203125,0.20000000298023224
215043,215.043,8.90618896484375,41.42401123046875,7.650909423828125,0.20000000298023224
216016,216.016,8.94525146484375,41.42401123046875,7.6510467529296875,0.20000000298023224
217010,217.01,8.98712158203125,40.45597839355469,7.64996337890625,0.20000000298023224
218020,218.02,9.029052734375,40.45597839355469,7.6516265869140625,0.20000000298023224
219043,219.043,9.071044921875,41.08326721191406,7.652008056640625,0.20000000298023224
220047,220.047,9.11309814453125,41.92964172363281,7.646331787109375,0.20000000298023224
221062,221.062,9.158447265625,43.15653991699219,7.6478118896484375,0.20000000298023224
222057,222.057,9.20257568359375,43.52403259277344,7.6502838134765625,0.20000000298023224
223044,223.044,9.24395751953125,42.17326354980469,7.6510467529296875,0.20000000298023224
