time_us,time_ms,angle,vel,vbat,set_volts
1111,1.111,2.0406737327575684,0.0220489501953125,7.9925689697265625,-1.0
1896,1.896,2.039139747619629,-0.6489715576171875,7.983917236328125,-1.0
2835,2.835,2.0145959854125977,-9.197280883789062,7.983917236328125,-1.0
3823,3.823,1.9489226341247559,-28.542709350585938,7.8777313232421875,-1.0
4818,4.818,1.863307237625122,-49.13755798339844,7.8777313232421875,-1.0
5756,5.756,1.755640983581543,-70.46305847167969,7.873626708984375,-1.0
6712,6.712,1.61988365650177,-93.47853088378906,7.87628173828125,-1.0
7713,7.713,1.4705122709274292,-113.73101806640625,7.890625,-1.0
8694,8.694,1.3098278045654297,-130.12745666503906,7.9012298583984375,-1.0
9700,9.7,1.1373507976531982,-145.3828125,7.90924072265625,-1.0
10773,10.773,0.959984302520752,-156.9176788330078,7.921234130859375,-1.0
11728,11.728,0.781179666519165,-164.8192138671875,7.9274749755859375,-1.0
12718,12.718,0.5969102382659912,-171.32894897460938,7.9316253662109375,-1.0
13694,13.694,0.41292834281921387,-177.4387969970703,7.9412078857421875,-1.0
14669,14.669,0.22022199630737305,-181.27499389648438,7.9499053955078125,-1.0
15644,15.644,0.03202176094055176,-185.3329620361328,7.9480133056640625,-1.0
16588,16.588,-0.1635608673095703,-185.3329620361328,7.9493865966796875,-1.0
17540,17.54,-0.34917235374450684,-188.03372192382812,7.94976806640625,-1.0
18540,18.54,-0.5421664714813232,-188.24627685546875,7.9512176513671875,-1.0
19541,19.541,-0.733147144317627,-188.2783966064453,7.9550933837890625,-1.0
20529,20.529,-0.9257574081420898,-189.03579711914062,7.954010009765625,-1.0
21488,21.488,-1.1133825778961182,-190.20823669433594,7.951873779296875,-1.0
22476,22.476,-1.2988982200622559,-189.86903381347656,7.949554443359375,-1.0
23414,23.414,-1.4816336631774902,-188.34033203125,7.9496612548828125,-1.0
24370,24.37,-1.6717514991760254,-187.4109344482422,7.9507293701171875,-1.0
25389,25.389,-1.8553500175476074,-187.27938842773438,7.9492645263671875,-1.0
26407,26.407,-2.042304039001465,-187.09866333007812,7.9479217529296875,-1.0
27407,27.407,-2.222067356109619,-185.9668731689453,7.9510345458984375,-1.0
28432,28.432,-2.4023098945617676,-183.81326293945312,7.950042724609375,-1.0
29382,29.382,-2.586866855621338,-182.66920471191406,7.9471435546875,-1.0
30392,30.392,-2.586866855621338,-182.8394775390625,7.944915771484375,-1.0
31266,31.266,-2.7664384841918945,-182.28330993652344,7.946197509765625,-1.0
32104,32.104,-2.946873188018799,-181.72772216796875,7.9500732421875,-1.0
32974,32.974,-3.1305675506591797,-181.84544372558594,7.94830322265625,-1.0
33833,33.833,-3.313302993774414,-182.11984252929688,7.946075439453125,-1.0
34802,34.802,-3.4957504272460938,-182.1669158935547,7.946075439453125,-1.0
35737,35.737,-3.67752742767334,-182.57687377929688,7.9459991455078125,-1.0
36680,36.68,-3.8619885444641113,-183.2833709716797,7.946868896484375,-1.0
37644,37.644,-4.050093173980713,-184.5228271484375,7.948028564453125,-1.0
38587,38.587,-4.23637580871582,-185.73667907714844,7.94879150390625,-1.0
39610,39.61,-4.421411991119385,-185.57916259765625,7.950836181640625,-1.0
40561,40.561,-4.6099958419799805,-186.06312561035156,7.9524688720703125,-1.0
41563,41.563,-4.7983880043029785,-187.46490478515625,7.950225830078125,-1.0
42540,42.54,-4.990519046783447,-188.50714111328125,7.9458770751953125,-1.0
43504,43.504,-5.183225631713867,-190.03749084472656,7.9499664306640625,-1.0
44506,44.506,-5.377369403839111,-190.03749084472656,7.95538330078125,-1.0
45520,45.52,-5.570746898651123,-192.29205322265625,7.952545166015625,-1.0
46522,46.522,-5.765370845794678,-193.14303588867188,7.9526519775390625,-1.0
47522,47.522,-5.961432933807373,-193.14303588867188,7.955963134765625,-1.0
48540,48.54,-6.158453464508057,-195.2459259033203,7.9560394287109375,-1.0
49549,49.549,-6.357966899871826,-196.7376251220703,7.9599151611328125,-1.0
50550,50.55,-6.559589862823486,-198.4750518798828,7.9670867919921875,-1.0
51489,51.489,-6.759774684906006,-199.09190368652344,7.96539306640625,-1.0
52488,52.488,-6.961493015289307,-199.09190368652344,7.9626922607421875,-1.0
53464,53.464,-7.169922351837158,-200.61782836914062,7.970855712890625,-1.0
54417,54.417,-7.37375020980835,-202.34432983398438,7.9707183837890625,-1.0
55350,55.35,-7.577481746673584,-203.32742309570312,7.964996337890625,-1.0
56337,56.337,-7.577481746673584,-203.4908905029297,7.9671478271484375,-1.0
57294,57.294,-7.784952640533447,-204.97540283203125,7.9709320068359375,-1.0
58294,58.294,-7.997217655181885,-207.58843994140625,7.9728546142578125,-1.0
59116,59.116,-8.207468032836914,-208.64535522460938,7.9659576416015625,-1.0
59973,59.973,-8.415323257446289,-208.32618713378906,7.9612274169921875,-1.0
60809,60.809,-8.626150131225586,-208.71389770507812,7.97027587890625,-1.0
61784,61.784,-8.838127136230469,-209.8346710205078,7.9781951904296875,-1.0
62759,62.759,-9.051158905029297,-210.9022216796875,7.97320556640625,-1.0
63709,63.709,-9.263422012329102,-211.96603393554688,7.9703216552734375,-1.0
64684,64.684,-9.477701187133789,-212.79783630371094,7.9703216552734375,-1.0
65658,65.658,-9.69379997253418,-213.36761474609375,7.974212646484375,-1.0
66601,66.601,-9.908557891845703,-213.81956481933594,7.9770050048828125,-1.0
67585,67.585,-10.124752044677734,-214.60745239257812,7.97723388671875,-1.0
68553,68.553,-10.34583854675293,-216.7392120361328,7.976409912109375,-1.0
69566,69.566,-10.56395149230957,-217.17755126953125,7.9757843017578125,-1.0
70541,70.541,-10.77985954284668,-217.2646026611328,7.9774932861328125,-1.0
71535,71.535,-10.999794006347656,-218.33944702148438,7.982818603515625,-1.0
72528,72.528,-11.222412109375,-219.26405334472656,7.983367919921875,-1.0
73454,73.454,-11.441484451293945,-219.26405334472656,7.9847259521484375,-1.0
74392,74.392,-11.663719177246094,-219.7576141357422,7.9794769287109375,-1.0
75438,75.438,-11.884420394897461,-220.72535705566406,7.976593017578125,-1.0
76377,76.377,-12.103300094604492,-220.23985290527344,7.9803009033203125,-1.0
77315,77.315,-12.323522567749023,-219.69912719726562,7.981353759765625,-1.0
78343,78.343,-12.54345703125,-219.90487670898438,7.9838714599609375,-1.0
79343,79.343,-12.765022277832031,-220.53878784179688,7.9837493896484375,-1.0
80336,80.336,-12.982271194458008,-220.33026123046875,7.9827880859375,-1.0
81337,81.337,-13.202686309814453,-219.74888610839844,7.9792022705078125,-1.0
82306,82.306,-13.428085327148438,-219.4617462158203,7.9817352294921875,-1.0
83257,83.257,-13.428085327148438,-221.51190185546875,7.9867706298828125,-1.0
84241,84.241,-13.64926528930664,-222.0070037841797,7.9854888916015625,-1.0
85029,85.029,-13.868337631225586,-220.43389892578125,7.98248291015625,-1.0
85898,85.898,-14.088367462158203,-220.74807739257812,7.9813385009765625,-1.0
86774,86.774,-14.314630508422852,-222.27066040039062,7.9828948974609375,-1.0
87708,87.708,-14.536291122436523,-222.04295349121094,7.9847259521484375,-1.0
88658,88.658,-14.753923416137695,-220.43927001953125,7.9847259521484375,-1.0
89589,89.589,-14.974817276000977,-220.64405822753906,7.9838409423828125,-1.0
90585,90.585,-15.19877815246582,-221.7884063720703,7.980560302734375,-1.0
91604,91.604,-15.418424606323242,-221.5703887939453,7.980377197265625,-1.0
92629,92.629,-15.640565872192383,-221.88841247558594,7.980377197265625,-1.0
93579,93.579,-15.862895965576172,-222.10211181640625,7.981536865234375,-1.0
94537,94.537,-16.083406448364258,-220.93063354492188,7.9814300537109375,-1.0
95463,95.463,-16.304012298583984,-221.3286895751953,7.9812469482421875,-1.0
96452,96.452,-16.527013778686523,-222.0198516845703,7.97735595703125,-1.0
97436,97.436,-16.75030517578125,-222.53555297851562,7.979522705078125,-1.0
98426,98.426,-16.969375610351562,-220.7711944580078,7.983978271484375,-1.0
99389,99.389,-17.1905574798584,-220.7711944580078,7.982391357421875,-1.0
100333,100.333,-17.414997100830078,-221.40635681152344,7.98443603515625,-1.0
101322,101.322,-17.637617111206055,-222.02598571777344,7.9843292236328125,-1.0
102266,102.266,-17.860042572021484,-222.7918243408203,7.9818115234375,-1.0
103237,103.237,-17.860042572021484,-222.06710815429688,7.98260498046875,-1.0
104187,104.187,-18.08064842224121,-222.12185668945312,7.9807586669921875,-1.0
105153,105.153,-18.302885055541992,-221.64297485351562,7.9828948974609375,-1.0
106010,106.01,-18.521764755249023,-221.24969482421875,7.9852142333984375,-1.0
106871,106.871,-18.741506576538086,-220.734375,7.9842376708984375,-1.0
107728,107.728,-18.964126586914062,-220.84213256835938,7.9853057861328125,-1.0
108640,108.64,-19.185211181640625,-220.82574462890625,7.9853057861328125,-1.0
109585,109.585,-19.402462005615234,-220.13909912109375,7.984130859375,-1.0
110564,110.564,-19.62661361694336,-221.0213165283203,7.9846343994140625,-1.0
111535,111.535,-19.851150512695312,-222.8037109375,7.9847259521484375,-1.0
112526,112.526,-20.070894241333008,-221.1647491455078,7.985687255859375,-1.0
113489,113.489,-20.289485931396484,-220.74203491210938,7.9886932373046875,-1.0
114465,114.465,-20.51354217529297,-221.3286895751953,7.9878082275390625,-1.0
115507,115.507,-20.737119674682617,-222.72422790527344,7.99072265625,-1.0
116505,116.505,-20.956192016601562,-221.32745361328125,7.98828125,-1.0
117478,117.478,-21.175838470458984,-220.36593627929688,7.9799652099609375,-1.0
118430,118.43,-21.396923065185547,-221.21115112304688,7.97784423828125,-1.0
119429,119.429,-21.619064331054688,-221.01087951660156,7.97967529296875,-1.0
120375,120.375,-21.83727264404297,-220.72804260253906,7.97979736328125,-1.0
121377,121.377,-22.059316635131836,-220.56927490234375,7.9795989990234375,-1.0
122359,122.359,-22.27838706970215,-219.91244506835938,7.9848480224609375,-1.0
123359,123.359,-22.49640464782715,-219.91244506835938,7.985107421875,-1.0
124300,124.3,-22.71461296081543,-219.08831787109375,7.9822998046875,-1.0
125300,125.3,-22.937232971191406,-219.27316284179688,7.9809417724609375,-1.0
126266,126.266,-23.154865264892578,-220.400634765625,7.9811553955078125,-1.0
127259,127.259,-23.3709659576416,-219.51150512695312,7.9790191650390625,-1.0
128261,128.261,-23.591283798217773,-218.2985076904297,7.9804840087890625,-1.0
129200,129.2,-23.81045150756836,-219.15408325195312,7.9818267822265625,-1.0
130185,130.185,-24.02808380126953,-219.17852783203125,7.980072021484375,-1.0
131190,131.19,-24.247060775756836,-218.71182250976562,7.9799957275390625,-1.0
132191,132.191,-24.462871551513672,-218.890625,7.97833251953125,-1.0
133192,133.192,-24.67724609375,-217.9320831298828,7.976409912109375,-1.0
134155,134.155,-24.894399642944336,-216.6331787109375,7.97320556640625,-1.0
135163,135.163,-24.894399642944336,-216.25572204589844,7.978759765625,-1.0
136160,136.16,-25.325353622436523,-216.46109008789062,7.982330322265625,-1.0
137167,137.167,-25.537904739379883,-216.0997314453125,7.975799560546875,-1.0
138170,138.17,-25.537904739379883,-214.3143768310547,7.9764251708984375,-1.0
139113,139.113,-25.74738883972168,-212.97914123535156,7.9792327880859375,-1.0
140113,140.113,-25.96473503112793,-213.87335205078125,7.97125244140625,-1.0
140914,140.914,-26.177383422851562,-213.37730407714844,7.9693603515625,-1.0
141809,141.809,-26.384469985961914,-211.6515655517578,7.9706268310546875,-1.0
142699,142.699,-26.594242095947266,-210.97479248046875,7.96624755859375,-1.0
143630,143.63,-26.80756187438965,-211.2655792236328,7.9664764404296875,-1.0
144574,144.574,-27.01877212524414,-211.77505493164062,7.9747161865234375,-1.0
145563,145.563,-27.225858688354492,-209.653564453125,7.9747161865234375,-1.0
146510,146.51,-27.430166244506836,-207.5629425048828,7.979339599609375,-1.0
147436,147.436,-27.6374454498291,-207.92323303222656,7.97174072265625,-1.0
148387,148.387,-27.84357452392578,-207.20925903320312,7.97039794921875,-1.0
149321,149.321,-28.047977447509766,-206.22348022460938,7.9716339111328125,-1.0
150310,150.31,-28.252668380737305,-205.63682556152344,7.964080810546875,-1.0
151268,151.268,-28.456687927246094,-205.06954956054688,7.96502685546875,-1.0
152250,152.25,-28.658885955810547,-205.06954956054688,7.9691925048828125,-1.0
153226,153.226,-28.859548568725586,-204.04225158691406,7.9662628173828125,-1.0
154238,154.238,-29.063663482666016,-202.71075439453125,7.966949462890625,-1.0
155228,155.228,-29.26864242553711,-203.13385009765625,7.967529296875,-1.0
156231,156.231,-29.470073699951172,-203.8098602294922,7.9651947021484375,-1.0
157206,157.206,-29.668052673339844,-203.02810668945312,7.9664764404296875,-1.0
158160,158.16,-29.86986541748047,-201.20620727539062,7.9678192138671875,-1.0
159189,159.189,-30.073501586914062,-201.30381774902344,7.965972900390625,-1.0
160189,160.189,-30.275508880615234,-202.1455841064453,7.9647216796875,-1.0
161135,161.135,-30.477611541748047,-202.11720275878906,7.9649200439453125,-1.0
162085,162.085,-30.477611541748047,-202.04051208496094,7.966766357421875,-1.0
162881,162.881,-30.67913818359375,-202.39437866210938,7.966278076171875,-1.0
163780,163.78,-30.881336212158203,-201.92018127441406,7.9672393798828125,-1.0
164680,164.68,-31.083629608154297,-202.0764617919922,7.96868896484375,-1.0
165554,165.554,-31.28506088256836,-201.91912841796875,7.9652862548828125,-1.0
166507,166.507,-31.487640380859375,-202.11988830566406,7.9652862548828125,-1.0
167458,167.458,-31.690799713134766,-202.441162109375,7.9665679931640625,-1.0
168405,168.405,-31.89251708984375,-202.1443328857422,7.968414306640625,-1.0
169361,169.361,-32.094234466552734,-202.57347106933594,7.9629669189453125,-1.0
170355,170.355,-32.30113220214844,-203.65147399902344,7.96124267578125,-1.0
171340,171.34,-32.50495910644531,-203.72097778320312,7.9627227783203125,-1.0
172304,172.304,-32.705718994140625,-202.65333557128906,7.9656982421875,-1.0
173303,173.303,-32.90993118286133,-203.165771484375,7.9675140380859375,-1.0
174331,174.331,-33.117401123046875,-204.59555053710938,7.96490478515625,-1.0
175275,175.275,-33.32496643066406,-205.1147918701172,7.9686126708984375,-1.0
176252,176.252,-33.527069091796875,-205.1147918701172,7.9652862548828125,-1.0
177259,177.259,-33.73003387451172,-204.08175659179688,7.963653564453125,-1.0
178248,178.248,-33.935970306396484,-204.6913299560547,7.96929931640625,-1.0
179200,179.2,-34.14334487915039,-205.59024047851562,7.96771240234375,-1.0
180200,180.2,-34.3507194519043,-205.59024047851562,7.9673309326171875,-1.0
181243,181.243,-34.55867004394531,-206.99085998535156,7.970245361328125,-1.0
182269,182.269,-34.7657585144043,-207.0774383544922,7.970428466796875,-1.0
183262,183.262,-34.972557067871094,-207.058349609375,7.968292236328125,-1.0
184222,184.222,-35.17983627319336,-207.06985473632812,7.9699554443359375,-1.0
185222,185.222,-35.3907585144043,-208.4232177734375,7.9706268310546875,-1.0
186191,186.191,-35.602928161621094,-209.81578063964844,7.9712066650390625,-1.0
187178,187.178,-35.81135940551758,-209.39346313476562,7.9702301025390625,-1.0
188186,188.186,-36.02132034301758,-209.627197265625,7.97149658203125,-1.0
189172,189.172,-36.234832763671875,-209.627197265625,7.97052001953125,-1.0
190136,190.136,-36.44987869262695,-210.9980010986328,7.9680938720703125,-1.0
191088,191.088,-36.6645393371582,-212.58729553222656,7.9731597900390625,-1.0
192057,192.057,-36.87968063354492,-213.3924560546875,7.9754638671875,-1.0
193057,193.057,-37.09165573120117,-213.45726013183594,7.9735107421875,-1.0
194084,194.084,-37.3060302734375,-213.43617248535156,7.9732208251953125,-1.0
195086,195.086,-37.5213623046875,-213.1769256591797,7.970611572265625,-1.0
196075,196.075,-37.73727035522461,-213.93423461914062,7.9727630615234375,-1.0
197089,197.089,-37.95269775390625,-214.544189453125,7.979156494140625,-1.0
198041,198.041,-38.166595458984375,-215.41212463378906,7.979217529296875,-1.0
199005,199.005,-38.166595458984375,-214.89382934570312,7.9804840087890625,-1.0
199946,199.946,-38.38365173339844,-215.10696411132812,7.97552490234375,-1.0
200792,200.792,-38.60301208496094,-217.19557189941406,7.97467041015625,-1.0
201637,201.637,-38.81863021850586,-216.59674072265625,7.9853515625,-1.0
202538,202.538,-39.03310012817383,-215.8833465576172,7.984619140625,-1.0
203478,203.478,-39.252174377441406,-216.44622802734375,7.97802734375,-1.0
204417,204.417,-39.47229766845703,-218.33627319335938,7.9772796630859375,-1.0
205398,205.398,-39.69012451171875,-218.157958984375,7.9772796630859375,-1.0
206331,206.331,-39.90603256225586,-216.78744506835938,7.9820404052734375,-1.0
207281,207.281,-40.12289810180664,-217.32998657226562,7.984344482421875,-1.0
208256,208.256,-40.3421630859375,-218.0947723388672,7.9794158935546875,-1.0
209206,209.206,-40.55874252319336,-216.90977478027344,7.975189208984375,-1.0
210167,210.167,-40.77637481689453,-216.90977478027344,7.9744873046875,-1.0
211109,211.109,-40.99563980102539,-217.67263793945312,7.9763336181640625,-1.0
212104,212.104,-41.2115478515625,-217.62518310546875,7.9766082763671875,-1.0
213159,213.159,-41.427452087402344,-216.35101318359375,7.9781646728515625,-1.0
214218,214.218,-41.64566421508789,-217.5823211669922,7.9799041748046875,-1.0
215212,215.212,-41.86598205566406,-218.0487518310547,7.979705810546875,-1.0
216181,216.181,-42.08073806762695,-216.73825073242188,7.9785308837890625,-1.0
217169,217.169,-42.29664611816406,-216.94534301757812,7.9777679443359375,-1.0
218172,218.172,-42.516387939453125,-216.94534301757812,7.976318359375,-1.0
219097,219.097,-42.734596252441406,-217.42471313476562,7.9803924560546875,-1.0
220087,220.087,-42.952327728271484,-217.7101287841797,7.982513427734375,-1.0
221020,221.02,-43.170536041259766,-218.2404022216797,7.9819183349609375,-1.0
221970,221.97,-43.3853874206543,-217.67791748046875,7.9781341552734375,-1.0
223010,223.01,-43.60139083862305,-217.2727508544922,7.97271728515625,-1.0
224011,224.011,-43.81816482543945,-216.7460174560547,7.9746856689453125,-1.0
225042,225.042,-44.035701751708984,-216.23146057128906,7.9791412353515625,-1.0
225981,225.981,-44.252662658691406,-216.59031677246094,7.977081298828125,-1.0
226982,226.982,-44.466461181640625,-216.6476593017578,7.975341796875,-1.0
227963,227.963,-44.682559967041016,-216.1732635498047,7.9780731201171875,-1.0
228958,228.958,-44.682559967041016,-215.489501953125,7.9761199951171875,-1.0
229901,229.901,-44.90019607543945,-216.7731475830078,7.981170654296875,-1.0
230703,230.703,-45.11399459838867,-215.67079162597656,7.982025146484375,-1.0
231628,231.628,-45.326927185058594,-214.18589782714844,7.9775543212890625,-1.0
232539,232.539,-45.54005813598633,-214.24391174316406,7.976409912109375,-1.0
233465,233.465,-45.75864791870117,-215.14569091796875,7.97747802734375,-1.0
234334,234.334,-45.97330856323242,-214.92288208007812,7.97747802734375,-1.0
235307,235.307,-46.18327331542969,-213.6441192626953,7.971466064453125,-1.0
236241,236.241,-46.396881103515625,-213.60145568847656,7.97100830078125,-1.0
237203,237.203,-46.611637115478516,-214.2847442626953,7.977752685546875,-1.0
238166,238.166,-46.82236862182617,-212.4875030517578,7.9770050048828125,-1.0
239160,239.16,-47.03377151489258,-212.03823852539062,7.9765777587890625,-1.0
240168,240.168,-47.245365142822266,-212.40293884277344,7.974090576171875,-1.0
241106,241.106,-47.456764221191406,-211.4761199951172,7.974090576171875,-1.0
242142,242.142,-47.66596221923828,-211.18284606933594,7.9732208251953125,-1.0
243153,243.153,-47.8770751953125,-211.21917724609375,7.972930908203125,-1.0
244141,244.141,-48.09020233154297,-211.9607696533203,7.9735260009765625,-1.0
245103,245.103,-48.29978561401367,-210.59283447265625,7.973907470703125,-1.0
246054,246.054,-48.50677490234375,-210.59283447265625,7.97283935546875,-1.0
247008,247.008,-48.71779251098633,-209.7141571044922,7.9715728759765625,-1.0
247992,247.992,-48.929290771484375,-210.16763305664062,7.97216796875,-1.0
248936,248.936,-49.13906478881836,-210.6642608642578,7.9712982177734375,-1.0
249896,249.896,-49.34893035888672,-210.30645751953125,7.9716796875,-1.0
