time_us,time_ms,angle,vel,vbat,set_volts
1118,1.118,4.657261848449707,-0.6311492919921875,7.8814849853515625,-1.0
1904,1.904,4.657261848449707,-0.5716094970703125,7.8763275146484375,-1.0
2868,2.868,4.634251594543457,-8.627593994140625,7.8155975341796875,-1.0
3813,3.813,4.5647430419921875,-29.808135986328125,7.75445556640625,-1.0
4812,4.812,4.476156234741211,-50.89482116699219,7.7467041015625,-1.0
5807,5.807,4.368393898010254,-71.65850830078125,7.7469482421875,-1.0
6788,6.788,4.235896110534668,-93.214599609375,7.7469482421875,-1.0
7738,7.738,4.090167999267578,-112.11602783203125,7.757720947265625,-1.0
8670,8.67,3.9412760734558105,-124.62861633300781,7.770477294921875,-1.0
9620,9.62,3.7973694801330566,-132.01914978027344,7.7765960693359375,-1.0
10624,10.624,3.659311294555664,-134.12884521484375,7.7811126708984375,-1.0
11568,11.568,3.524991989135742,-134.12884521484375,7.781982421875,-1.0
12588,12.588,3.403424024581909,-129.8512420654297,7.7772369384765625,-1.0
13588,13.588,3.296428918838501,-121.45001220703125,7.7689208984375,-1.0
14529,14.529,3.2063074111938477,-121.45001220703125,7.7567291259765625,-1.0
15469,15.469,3.1251983642578125,-110.64244079589844,7.7467041015625,-1.0
16493,16.493,3.058661937713623,-99.38761901855469,7.7374267578125,-1.0
17468,17.468,3.0041096210479736,-87.9991455078125,7.725921630859375,-1.0
18466,18.466,2.956939697265625,-76.49131774902344,7.715118408203125,-1.0
19436,19.436,2.9188778400421143,-65.94375610351562,7.7053680419921875,-1.0
20465,20.465,2.8868560791015625,-55.86041259765625,7.6975555419921875,-1.0
21430,21.43,2.8549299240112305,-47.84248352050781,7.6909942626953125,-1.0
22431,22.431,2.8229081630706787,-42.28007507324219,7.6836395263671875,-1.0
23378,23.378,2.7954883575439453,-38.13746643066406,7.67669677734375,-1.0
24361,24.361,2.7650961875915527,-34.880828857421875,7.6710968017578125,-1.0
25326,25.326,2.7650961875915527,-32.82203674316406,7.6684112548828125,-1.0
26225,26.225,2.73614239692688,-32.1046142578125,7.66802978515625,-1.0
27102,27.102,2.7026824951171875,-32.13365173339844,7.665802001953125,-1.0
27940,27.94,2.666154384613037,-33.821990966796875,7.666107177734375,-1.0
28821,28.821,2.631256341934204,-34.25238037109375,7.6663970947265625,-1.0
29781,29.781,2.5977964401245117,-34.016143798828125,7.6637725830078125,-1.0
30730,30.73,2.5643365383148193,-33.818359375,7.6637725830078125,-1.0
31692,31.692,2.530876636505127,-33.71662902832031,7.6631011962890625,-1.0
32650,32.65,2.495786666870117,-34.25679016113281,7.6635894775390625,-1.0
33633,33.633,2.459162950515747,-34.83854675292969,7.662811279296875,-1.0
34607,34.607,2.4210052490234375,-36.25651550292969,7.66253662109375,-1.0
35533,35.533,2.3795876502990723,-38.15606689453125,7.6636962890625,-1.0
36483,36.483,2.3319385051727295,-38.15606689453125,7.666595458984375,-1.0
37433,37.433,2.2777698040008545,-41.03794860839844,7.6685333251953125,-1.0
38405,38.405,2.220341205596924,-45.68916320800781,7.6709442138671875,-1.0
39434,39.434,2.1562976837158203,-49.97041320800781,7.6775360107421875,-1.0
40435,40.435,2.087268352508545,-55.112213134765625,7.685272216796875,-1.0
41420,41.42,2.0135414600372314,-60.11607360839844,7.6912384033203125,-1.0
42420,42.42,1.93070650100708,-64.98991394042969,7.6959686279296875,-1.0
43408,43.408,1.842310905456543,-71.56187438964844,7.699920654296875,-1.0
44347,44.347,1.744136095046997,-77.73710632324219,7.704864501953125,-1.0
45331,45.331,1.6387708187103271,-84.70185852050781,7.71173095703125,-1.0
46337,46.337,1.5234346389770508,-92.15260314941406,7.7193603515625,-1.0
47313,47.313,1.39870285987854,-100.610107421875,7.7284393310546875,-1.0
48315,48.315,1.2651506662368774,-108.83857727050781,7.7367401123046875,-1.0
49343,49.343,1.1226820945739746,-117.79281616210938,7.7465057373046875,-1.0
50288,50.288,0.973502516746521,-126.68367004394531,7.75830078125,-1.0
51262,51.262,0.973502516746521,-134.84693908691406,7.76629638671875,-1.0
52068,52.068,0.8179951906204224,-141.7120819091797,7.7714996337890625,-1.0
52962,52.962,0.6612415313720703,-147.81398010253906,7.7772064208984375,-1.0
53822,53.822,0.5015158653259277,-151.60166931152344,7.7822113037109375,-1.0
54712,54.712,0.3402559757232666,-155.0777587890625,7.78656005859375,-1.0
55676,55.676,0.17765402793884277,-157.7755584716797,7.79071044921875,-1.0
56632,56.632,0.012175798416137695,-160.52099609375,7.79071044921875,-1.0
57588,57.588,-0.1560826301574707,-163.35311889648438,7.792724609375,-1.0
58573,58.573,-0.32386183738708496,-164.915283203125,7.794952392578125,-1.0
59537,59.537,-0.4949007034301758,-167.0330352783203,7.7968902587890625,-1.0
60512,60.512,-0.6646931171417236,-167.99273681640625,7.800079345703125,-1.0
61522,61.522,-0.8360195159912109,-169.0886688232422,7.8052520751953125,-1.0
62491,62.491,-1.0107975006103516,-170.5057830810547,7.807525634765625,-1.0
63500,63.5,-1.1842331886291504,-172.0359344482422,7.8075714111328125,-1.0
64433,64.433,-1.3577649593353271,-172.52938842773438,7.806427001953125,-1.0
65387,65.387,-1.5295705795288086,-172.52938842773438,7.80633544921875,-1.0
66337,66.337,-1.7029104232788086,-172.15394592285156,7.80780029296875,-1.0
67337,67.337,-1.877305030822754,-172.51528930664062,7.8105010986328125,-1.0
68334,68.334,-2.0550551414489746,-173.2291717529297,7.81243896484375,-1.0
69313,69.313,-2.229353427886963,-174.17477416992188,7.8126220703125,-1.0
70308,70.308,-2.4018306732177734,-174.74609375,7.8109588623046875,-1.0
71253,71.253,-2.4018306732177734,-173.33856201171875,7.810394287109375,-1.0
72192,72.192,-2.752249240875244,-173.1871795654297,7.8143768310546875,-1.0
73199,73.199,-2.752249240875244,-175.0936279296875,7.8146514892578125,-1.0
74155,74.155,-2.9295201301574707,-175.89686584472656,7.81231689453125,-1.0
75180,75.18,-3.106886386871338,-175.81776428222656,7.81475830078125,-1.0
75993,75.993,-3.286745548248291,-177.13516235351562,7.81707763671875,-1.0
76895,76.895,-3.467851161956787,-179.12416076660156,7.8187103271484375,-1.0
77811,77.811,-3.6488609313964844,-179.8367919921875,7.8198699951171875,-1.0
78712,78.712,-3.833130359649658,-180.86561584472656,7.8206329345703125,-1.0
79645,79.645,-4.016249656677246,-182.23182678222656,7.8205413818359375,-1.0
80613,80.613,-4.203874588012695,-183.6259307861328,7.8217926025390625,-1.0
81569,81.569,-4.392937660217285,-186.23780822753906,7.8217926025390625,-1.0
82539,82.539,-4.578741073608398,-186.25794982910156,7.8240203857421875,-1.0
83514,83.514,-4.765982627868652,-186.07138061523438,7.8246002197265625,-1.0
84490,84.49,-4.955141544342041,-187.71676635742188,7.8258514404296875,-1.0
85465,85.465,-5.149573802947998,-189.74728393554688,7.8269195556640625,-1.0
86460,86.46,-5.34227991104126,-190.68511962890625,7.8293914794921875,-1.0
87426,87.426,-5.536712169647217,-191.99407958984375,7.8306732177734375,-1.0
88365,88.365,-5.7312397956848145,-193.47389221191406,7.8278961181640625,-1.0
89327,89.327,-5.924617290496826,-193.47389221191406,7.827880859375,-1.0
90265,90.265,-6.1207756996154785,-193.60772705078125,7.8309783935546875,-1.0
91216,91.216,-6.314919948577881,-194.07061767578125,7.8330078125,-1.0
92173,92.173,-6.51232385635376,-194.79397583007812,7.8350372314453125,-1.0
93173,93.173,-6.709536075592041,-195.21994018554688,7.83551025390625,-1.0
94173,94.173,-6.709536075592041,-195.94754028320312,7.8348236083984375,-1.0
95096,95.096,-6.905502796173096,-196.5294952392578,7.8352203369140625,-1.0
95899,95.899,-7.103673458099365,-196.60598754882812,7.837738037109375,-1.0
96854,96.854,-7.306542873382568,-198.853271484375,7.839080810546875,-1.0
97706,97.706,-7.509219646453857,-199.63771057128906,7.839752197265625,-1.0
98602,98.602,-7.707870006561279,-199.8461456298828,7.8411102294921875,-1.0
99570,99.57,-7.906041622161865,-199.29986572265625,7.8411102294921875,-1.0
100504,100.504,-8.107376098632812,-200.60777282714844,7.8433380126953125,-1.0
101522,101.522,-8.313505172729492,-202.07943725585938,7.8433380126953125,-1.0
102472,102.472,-8.515510559082031,-202.11375427246094,7.8417816162109375,-1.0
103440,103.44,-8.713394165039062,-200.61849975585938,7.841400146484375,-1.0
104417,104.417,-8.916263580322266,-201.437744140625,7.8431396484375,-1.0
105411,105.411,-9.12200927734375,-202.47865295410156,7.8435516357421875,-1.0
106403,106.403,-9.324014663696289,-202.7035675048828,7.8436431884765625,-1.0
107342,107.342,-9.527460098266602,-202.89234924316406,7.842315673828125,-1.0
108336,108.336,-9.732820510864258,-203.78530883789062,7.84173583984375,-1.0
109286,109.286,-9.936649322509766,-203.78530883789062,7.8446807861328125,-1.0
110247,110.247,-10.142297744750977,-203.84542846679688,7.845947265625,-1.0
111219,111.219,-10.347562789916992,-204.4830780029297,7.8470001220703125,-1.0
112175,112.175,-10.557622909545898,-204.8326416015625,7.84844970703125,-1.0
113176,113.176,-10.762504577636719,-206.68310546875,7.84912109375,-1.0
114103,114.103,-10.762504577636719,-206.0357666015625,7.84844970703125,-1.0
115139,115.139,-11.173900604248047,-205.6981964111328,7.8471832275390625,-1.0
116192,116.192,-11.385780334472656,-205.9222412109375,7.8459320068359375,-1.0
117185,117.185,-11.594402313232422,-208.1724090576172,7.8453521728515625,-1.0
118131,118.131,-11.805900573730469,-208.3242645263672,7.8478851318359375,-1.0
119083,119.083,-12.015958786010742,-209.4460906982422,7.8498077392578125,-1.0
120108,120.108,-12.224580764770508,-209.77464294433594,7.8493194580078125,-1.0
121080,121.08,-12.224580764770508,-209.34906005859375,7.849517822265625,-1.0
121877,121.877,-12.43435287475586,-209.5572967529297,7.8494110107421875,-1.0
122760,122.76,-12.64201545715332,-208.97573852539062,7.8509674072265625,-1.0
123598,123.598,-12.851978302001953,-209.26968383789062,7.8519287109375,-1.0
124542,124.542,-13.06280517578125,-209.8492431640625,7.8512420654296875,-1.0
125498,125.498,-13.272193908691406,-209.70130920410156,7.8516387939453125,-1.0
126497,126.497,-13.483116149902344,-210.2600555419922,7.8516387939453125,-1.0
127446,127.446,-13.697776794433594,-211.93324279785156,7.85260009765625,-1.0
128431,128.431,-13.908987045288086,-211.7215576171875,7.853179931640625,-1.0
129401,129.401,-14.115787506103516,-209.3734130859375,7.8512420654296875,-1.0
130370,130.37,-14.325176239013672,-209.82843017578125,7.851531982421875,-1.0
131352,131.352,-14.53897476196289,-211.2838897705078,7.8548431396484375,-1.0
132327,132.327,-14.750280380249023,-211.3805389404297,7.8545379638671875,-1.0
133296,133.296,-14.956216812133789,-209.54522705078125,7.853668212890625,-1.0
134296,134.296,-15.164358139038086,-209.03402709960938,7.8523101806640625,-1.0
135331,135.331,-15.374897003173828,-209.49374389648438,7.85211181640625,-1.0
136316,136.316,-15.583135604858398,-209.0269317626953,7.8524017333984375,-1.0
137306,137.306,-15.7908935546875,-208.59080505371094,7.8513336181640625,-1.0
138306,138.306,-16.000761032104492,-209.01072692871094,7.8505706787109375,-1.0
139287,139.287,-16.207656860351562,-208.29042053222656,7.8515472412109375,-1.0
140257,140.257,-16.414840698242188,-207.9132537841797,7.8518218994140625,-1.0
141250,141.25,-16.621448516845703,-207.42613220214844,7.850860595703125,-1.0
142182,142.182,-16.831315994262695,-208.4178466796875,7.84979248046875,-1.0
143182,143.182,-17.038021087646484,-207.85238647460938,7.8495025634765625,-1.0
144183,144.183,-17.241464614868164,-207.85238647460938,7.850677490234375,-1.0
145184,145.184,-17.447689056396484,-206.42835998535156,7.8494110107421875,-1.0
146155,146.155,-17.65650177001953,-206.41561889648438,7.84814453125,-1.0
147099,147.099,-17.863590240478516,-207.43226623535156,7.84747314453125,-1.0
148058,148.058,-18.072019577026367,-207.3880615234375,7.849517822265625,-1.0
149008,149.008,-18.072019577026367,-207.88229370117188,7.8498077392578125,-1.0
149983,149.983,-18.277667999267578,-207.0902862548828,7.8484344482421875,-1.0
150802,150.802,-18.483413696289062,-206.6273956298828,7.8477630615234375,-1.0
151665,151.665,-18.687145233154297,-205.52513122558594,7.8476715087890625,-1.0
152554,152.554,-18.891931533813477,-205.2974395751953,7.84844970703125,-1.0
153448,153.448,-19.09547233581543,-204.757568359375,7.847381591796875,-1.0
154450,154.45,-19.30035400390625,-204.75210571289062,7.8464202880859375,-1.0
155401,155.401,-19.502168655395508,-203.68963623046875,7.8473968505859375,-1.0
156376,156.376,-19.704078674316406,-202.914306640625,7.8473968505859375,-1.0
157314,157.314,-19.912124633789062,-204.70608520507812,7.84796142578125,-1.0
158292,158.292,-20.115665435791016,-204.38807678222656,7.8458251953125,-1.0
159274,159.274,-20.315275192260742,-202.6946563720703,7.8452606201171875,-1.0
160251,160.251,-20.513925552368164,-201.2721710205078,7.8446807861328125,-1.0
161294,161.294,-20.715930938720703,-201.51885986328125,7.8450469970703125,-1.0
162271,162.271,-20.91697883605957,-202.01663208007812,7.846710205078125,-1.0
163272,163.272,-21.115053176879883,-200.06463623046875,7.845184326171875,-1.0
164269,164.269,-21.311307907104492,-198.74197387695312,7.84112548828125,-1.0
165244,165.244,-21.508615493774414,-198.26998901367188,7.8396759033203125,-1.0
166214,166.214,-21.706594467163086,-198.26097106933594,7.842376708984375,-1.0
167166,167.166,-21.900835037231445,-198.26097106933594,7.84197998046875,-1.0
168104,168.104,-22.0968017578125,-197.41622924804688,7.8391571044921875,-1.0
169073,169.073,-22.293054580688477,-196.42288208007812,7.83868408203125,-1.0
170024,170.024,-22.487775802612305,-196.3599853515625,7.83685302734375,-1.0
170973,170.973,-22.68115234375,-195.82107543945312,7.837249755859375,-1.0
171955,171.955,-22.68115234375,-194.88113403320312,7.8385009765625,-1.0
172931,172.931,-22.873571395874023,-194.5269775390625,7.8370361328125,-1.0
173754,173.754,-23.06905746459961,-194.9730682373047,7.835205078125,-1.0
174641,174.641,-23.265695571899414,-195.11285400390625,7.834442138671875,-1.0
175487,175.487,-23.455812454223633,-193.9580535888672,7.8348388671875,-1.0
176374,176.374,-23.646602630615234,-192.91091918945312,7.8358001708984375,-1.0
177324,177.324,-23.842376708984375,-193.38070678710938,7.8358001708984375,-1.0
178315,178.315,-24.03642463684082,-194.27529907226562,7.836761474609375,-1.0
179248,179.248,-24.23066520690918,-193.74560546875,7.8363800048828125,-1.0
180233,180.233,-24.42509651184082,-193.81797790527344,7.836090087890625,-1.0
181198,181.198,-24.618953704833984,-193.8159637451172,7.8336639404296875,-1.0
182151,182.151,-24.810701370239258,-193.01715087890625,7.83282470703125,-1.0
183113,183.113,-25.002256393432617,-193.01715087890625,7.831787109375,-1.0
184066,184.066,-25.19179916381836,-192.60086059570312,7.8324432373046875,-1.0
184992,184.992,-25.38326072692871,-192.098876953125,7.8340606689453125,-1.0
185962,185.962,-25.574337005615234,-191.2987060546875,7.8325958251953125,-1.0
186896,186.896,-25.574337005615234,-191.1651611328125,7.83270263671875,-1.0
187807,187.807,-25.7641658782959,-190.5897216796875,7.833099365234375,-1.0
188663,188.663,-25.953229904174805,-190.55482482910156,7.83270263671875,-1.0
189522,189.522,-26.14507293701172,-191.08682250976562,7.8328094482421875,-1.0
190384,190.384,-26.33873748779297,-191.37684631347656,7.83154296875,-1.0
191318,191.318,-26.527034759521484,-190.20948791503906,7.83154296875,-1.0
192299,192.299,-26.71417999267578,-189.64891052246094,7.8311614990234375,-1.0
193262,193.262,-26.902379989624023,-188.5541229248047,7.831939697265625,-1.0
194200,194.2,-27.094511032104492,-189.96749877929688,7.8311614990234375,-1.0
195190,195.19,-27.283191680908203,-189.4232177734375,7.8296051025390625,-1.0
196160,196.16,-27.468706130981445,-188.5751190185547,7.8287506103515625,-1.0
197136,197.136,-27.653263092041016,-187.29165649414062,7.829803466796875,-1.0
198093,198.093,-27.840696334838867,-187.41371154785156,7.829986572265625,-1.0
199069,199.069,-28.029184341430664,-187.29098510742188,7.8295440673828125,-1.0
200068,200.068,-28.21402931213379,-186.3501739501953,7.8292236328125,-1.0
201040,201.04,-28.40127182006836,-186.3501739501953,7.829803466796875,-1.0
202070,202.07,-28.589950561523438,-187.18130493164062,7.82855224609375,-1.0
203059,203.059,-28.777095794677734,-187.65597534179688,7.826507568359375,-1.0
204064,204.064,-28.965871810913086,-187.65597534179688,7.8275909423828125,-1.0
205007,205.007,-29.153593063354492,-188.1144561767578,7.827972412109375,-1.0
205940,205.94,-29.34284782409668,-187.45387268066406,7.8282623291015625,-1.0
206938,206.938,-29.534883499145508,-188.65451049804688,7.8283538818359375,-1.0
207890,207.89,-29.722124099731445,-189.4810333251953,7.8288421630859375,-1.0
208902,208.902,-29.90955924987793,-188.70091247558594,7.8295135498046875,-1.0
209903,209.903,-30.10044288635254,-188.78211975097656,7.828643798828125,-1.0
210856,210.856,-30.293245315551758,-189.63021850585938,7.82952880859375,-1.0
211880,211.88,-30.48431968688965,-190.2433319091797,7.8316497802734375,-1.0
212889,212.889,-30.678850173950195,-190.54331970214844,7.831939697265625,-1.0
213890,213.89,-30.870019912719727,-191.87356567382812,7.83087158203125,-1.0
214890,214.89,-31.061960220336914,-191.63157653808594,7.8311614990234375,-1.0
215860,215.86,-31.251981735229492,-191.70510864257812,7.830963134765625,-1.0
216928,216.928,-31.44468879699707,-191.74691772460938,7.8311614990234375,-1.0
218003,218.003,-31.635862350463867,-192.04173278808594,7.83135986328125,-1.0
219023,219.023,-31.830007553100586,-192.33404541015625,7.8280487060546875,-1.0
219983,219.983,-32.0200309753418,-192.33404541015625,7.826904296875,-1.0
220942,220.942,-32.21187210083008,-192.14662170410156,7.83099365234375,-1.0
221988,221.988,-32.40620803833008,-192.50173950195312,7.8344573974609375,-1.0
222992,222.992,-32.60332489013672,-192.50173950195312,7.8358001708984375,-1.0
223955,223.955,-32.795074462890625,-194.0408935546875,7.836578369140625,-1.0
224954,224.954,-32.986724853515625,-193.14686584472656,7.8325958251953125,-1.0
225956,225.956,-33.17933654785156,-192.6041259765625,7.83319091796875,-1.0
226958,226.958,-33.376068115234375,-192.6041259765625,7.83599853515625,-1.0
227909,227.909,-33.56935119628906,-194.1539306640625,7.8349151611328125,-1.0
228853,228.853,-33.76090621948242,-193.90753173828125,7.8346405029296875,-1.0
229837,229.837,-33.95016098022461,-192.99729919433594,7.833953857421875,-1.0
230800,230.8,-33.95016098022461,-191.576171875,7.8340606689453125,-1.0
231725,231.725,-34.145263671875,-192.8442840576172,7.832794189453125,-1.0
232544,232.544,-34.33787536621094,-192.80690002441406,7.832794189453125,-1.0
233421,233.421,-34.53029251098633,-192.576416015625,7.8334808349609375,-1.0
234321,234.321,-34.72386169433594,-193.51559448242188,7.83367919921875,-1.0
235252,235.252,-34.91877365112305,-193.5025634765625,7.8348388671875,-1.0
236204,236.204,-35.111961364746094,-193.36651611328125,7.8348388671875,-1.0
237160,237.16,-35.305721282958984,-193.42825317382812,7.8346405029296875,-1.0
238110,238.11,-35.49909973144531,-193.32154846191406,7.8328857421875,-1.0
239065,239.065,-35.695064544677734,-194.8234100341797,7.8339691162109375,-1.0
240004,240.004,-35.890647888183594,-195.18121337890625,7.8348541259765625,-1.0
240986,240.986,-36.08335494995117,-193.80686950683594,7.8341522216796875,-1.0
241961,241.961,-36.27845764160156,-193.80686950683594,7.834136962890625,-1.0
242910,242.91,-36.476436614990234,-194.194580078125,7.8345489501953125,-1.0
243863,243.863,-36.674320220947266,-195.46432495117188,7.836578369140625,-1.0
244883,244.883,-36.87172317504883,-196.31761169433594,7.8375396728515625,-1.0
245908,245.908,-37.07027816772461,-197.35409545898438,7.837432861328125,-1.0
246898,246.898,-37.26758575439453,-197.93280029296875,7.836761474609375,-1.0
247906,247.906,-37.46364974975586,-197.23550415039062,7.8360748291015625,-1.0
248881,248.881,-37.6612434387207,-196.73599243164062,7.836181640625,-1.0
249892,249.892,-37.85816955566406,-197.0140380859375,7.8359832763671875,-1.0
