time_us,time_ms,angle,vel,vbat,set_volts
1100,1.1,0.0,0.241973876953125,7.6601104736328125,2.0
2693,2.693,0.05902099609375,0.2381439208984375,7.611968994140625,2.0
3718,3.718,0.20635986328125,20.2955322265625,7.4066314697265625,2.0
4659,4.659,0.20635986328125,65.55448913574219,7.235565185546875,2.0
5550,5.55,0.4085693359375,114.857421875,7.2242889404296875,2.0
6406,6.406,0.637939453125,155.54168701171875,7.234832763671875,2.0
7277,7.277,0.892578125,190.5833740234375,7.256134033203125,2.0
8153,8.153,1.16937255859375,221.06991577148438,7.28369140625,2.0
9079,9.079,1.4736328125,250.5970458984375,7.3196563720703125,2.0
10053,10.053,1.79913330078125,277.62255859375,7.3196563720703125,2.0
11093,11.093,2.14349365234375,301.5397033691406,7.3898468017578125,2.0
12053,12.053,2.50177001953125,321.6397705078125,7.3898468017578125,2.0
12986,12.986,2.87158203125,339.05072021484375,7.416961669921875,2.0
13942,13.942,3.25592041015625,354.85906982421875,7.446044921875,2.0
14904,14.904,3.653076171875,370.00799560546875,7.46832275390625,2.0
15886,15.886,4.0567626953125,381.5944519042969,7.49053955078125,2.0
16817,16.817,4.47442626953125,394.8976135253906,7.5142974853515625,2.0
17774,17.774,4.8963623046875,394.8976135253906,7.5328216552734375,2.0
18768,18.768,5.32391357421875,404.10833740234375,7.5466156005859375,2.0
19725,19.725,5.753173828125,412.49920654296875,7.5612945556640625,2.0
20750,20.75,6.1846923828125,418.47625732421875,7.575592041015625,2.0
21722,21.722,6.62493896484375,423.17626953125,7.58502197265625,2.0
22712,22.712,7.06671142578125,428.73187255859375,7.596435546875,2.0
23647,23.647,7.51031494140625,433.89544677734375,7.6058807373046875,2.0
24622,24.622,7.9462890625,437.2334899902344,7.60565185546875,2.0
25671,25.671,8.37799072265625,436.6931457519531,7.6017608642578125,2.0
26701,26.701,8.81396484375,434.8139343261719,7.591888427734375,2.0
27632,27.632,9.252197265625,435.8739013671875,7.5882415771484375,2.0
28631,28.631,9.69403076171875,435.745361328125,7.5953521728515625,2.0
29585,29.585,9.69403076171875,438.58868408203125,7.6029815673828125,2.0
30457,30.457,10.1419677734375,442.07147216796875,7.6143035888671875,2.0
31313,31.313,10.59039306640625,444.25042724609375,7.6228790283203125,2.0
32172,32.172,11.04425048828125,447.079833984375,7.626617431640625,2.0
33059,33.059,11.489501953125,446.80938720703125,7.6260223388671875,2.0
33992,33.992,11.939453125,447.337158203125,7.6260223388671875,2.0
34930,34.93,12.38128662109375,445.9130554199219,7.625732421875,2.0
35948,35.948,12.82598876953125,445.58428955078125,7.625732421875,2.0
36889,36.889,13.2723388671875,445.73529052734375,7.624664306640625,2.0
37839,37.839,13.72174072265625,446.9043884277344,7.627197265625,2.0
38821,38.821,14.1712646484375,447.91650390625,7.6276702880859375,2.0
39836,39.836,14.61419677734375,446.1649169921875,7.6238861083984375,2.0
40811,40.811,15.0621337890625,446.97857666015625,7.6220550537109375,2.0
41799,41.799,15.508056640625,446.7255859375,7.6234283447265625,2.0
42787,42.787,15.95458984375,446.7255859375,7.62652587890625,2.0
43778,43.778,16.40582275390625,448.4124755859375,7.6286468505859375,2.0
44755,44.755,16.8548583984375,448.04864501953125,7.63134765625,2.0
45731,45.731,17.30767822265625,449.6290283203125,7.6338653564453125,2.0
46725,46.725,17.7523193359375,449.6290283203125,7.6325836181640625,2.0
47657,47.657,18.201416015625,448.30712890625,7.6277313232421875,2.0
48610,48.61,18.64471435546875,448.68035888671875,7.6267852783203125,2.0
49632,49.632,19.09246826171875,446.7806091308594,7.6271820068359375,2.0
50610,50.61,19.54156494140625,446.5970153808594,7.6303863525390625,2.0
51604,51.604,19.99542236328125,447.9818115234375,7.6354217529296875,2.0
52597,52.597,19.99542236328125,449.45703125,7.6348114013671875,2.0
53525,53.525,20.44677734375,450.6407775878906,7.6320953369140625,2.0
54507,54.507,20.89117431640625,448.3173828125,7.6279296875,2.0
55480,55.48,21.3406982421875,448.86968994140625,7.6287384033203125,2.0
56318,56.318,21.78662109375,447.37811279296875,7.6289215087890625,2.0
57202,57.202,22.2347412109375,447.63897705078125,7.6326141357421875,2.0
58060,58.06,22.6859130859375,449.41619873046875,7.6378326416015625,2.0
59021,59.021,23.135009765625,449.280517578125,7.64111328125,2.0
59995,59.995,23.58935546875,451.10009765625,7.639251708984375,2.0
60964,60.964,24.04656982421875,449.643798828125,7.639251708984375,2.0
61898,61.898,24.48602294921875,449.8555908203125,7.6299896240234375,2.0
62824,62.824,24.930908203125,448.1436462402344,7.62725830078125,2.0
63755,63.755,25.37872314453125,447.52191162109375,7.628387451171875,2.0
64712,64.712,25.82781982421875,447.52191162109375,7.633392333984375,2.0
65727,65.727,26.2818603515625,449.73565673828125,7.6367645263671875,2.0
66654,66.654,26.7330322265625,449.73565673828125,7.6338348388671875,2.0
67650,67.65,27.17742919921875,450.80072021484375,7.630645751953125,2.0
68674,68.674,27.626953125,448.414306640625,7.6295013427734375,2.0
69607,69.607,28.0728759765625,448.96978759765625,7.6289215087890625,2.0
70581,70.581,28.51947021484375,447.36724853515625,7.629791259765625,2.0
71538,71.538,28.97216796875,447.1259460449219,7.6327972412109375,2.0
72526,72.526,29.4212646484375,448.9298095703125,7.635009765625,2.0
73520,73.52,29.8756103515625,449.4659423828125,7.6370391845703125,2.0
74507,74.507,30.32177734375,450.63330078125,7.63519287109375,2.0
75478,75.478,30.32177734375,449.53582763671875,7.6297607421875,2.0
76292,76.292,30.77227783203125,449.96832275390625,7.62969970703125,2.0
77132,77.132,31.22021484375,448.69903564453125,7.6337738037109375,2.0
78003,78.003,31.66802978515625,448.2886962890625,7.635009765625,2.0
78923,78.923,32.1187744140625,449.69854736328125,7.635009765625,2.0
79852,79.852,32.5743408203125,451.68780517578125,7.6390838623046875,2.0
80847,80.847,33.02850341796875,452.55865478515625,7.6415863037109375,2.0
81812,81.812,33.476318359375,450.78729248046875,7.6363372802734375,2.0
82749,82.749,33.929931640625,451.9766845703125,7.6326751708984375,2.0
83737,83.737,34.3819580078125,451.59844970703125,7.6368560791015625,2.0
84712,84.712,34.83282470703125,451.3797607421875,7.6393585205078125,2.0
85700,85.7,35.28680419921875,452.1517333984375,7.6388702392578125,2.0
86694,86.694,35.73724365234375,451.933349609375,7.6383819580078125,2.0
87708,87.708,36.190673828125,451.93353271484375,7.6358642578125,2.0
88698,88.698,36.634765625,449.64398193359375,7.6352996826171875,2.0
89648,89.648,37.084228515625,449.64398193359375,7.6267547607421875,2.0
90597,90.597,37.53082275390625,449.10968017578125,7.6211700439453125,2.0
91529,91.529,37.97857666015625,448.12640380859375,7.62847900390625,2.0
92529,92.529,38.429931640625,448.0346374511719,7.635711669921875,2.0
93479,93.479,38.429931640625,449.0880126953125,7.6385040283203125,2.0
94435,94.435,38.8841552734375,451.37823486328125,7.6378021240234375,2.0
95383,95.383,39.33624267578125,451.7193603515625,7.634796142578125,2.0
96176,96.176,39.78289794921875,450.0570983886719,7.6310272216796875,2.0
97072,97.072,40.23138427734375,449.6018981933594,7.6300811767578125,2.0
97974,97.974,40.6788330078125,448.9643249511719,7.6323089599609375,2.0
98923,98.923,41.128173828125,448.63299560546875,7.6362762451171875,2.0
99868,99.868,41.58050537109375,450.4942626953125,7.6362762451171875,2.0
100780,100.78,42.03289794921875,450.5776062011719,7.6378173828125,2.0
101731,101.731,42.48455810546875,451.5365295410156,7.6358642578125,2.0
102662,102.662,42.93206787109375,450.047607421875,7.63470458984375,2.0
103616,103.616,43.3826904296875,449.7117614746094,7.633453369140625,2.0
104566,104.566,43.82916259765625,449.7117614746094,7.6325836181640625,2.0
105517,105.517,44.2769775390625,449.200927734375,7.6331787109375,2.0
106539,106.539,44.72857666015625,448.7921447753906,7.637542724609375,2.0
107513,107.513,45.18292236328125,449.21868896484375,7.6387786865234375,2.0
108439,108.439,45.63323974609375,450.8683776855469,7.635284423828125,2.0
109426,109.426,45.63323974609375,451.1139221191406,7.633056640625,2.0
110398,110.398,46.08038330078125,449.7215576171875,7.6308441162109375,2.0
111347,111.347,46.52984619140625,449.8497314453125,7.63153076171875,2.0
112160,112.16,46.97564697265625,448.576904296875,7.6335601806640625,2.0
113002,113.002,47.42498779296875,449.0025634765625,7.635406494140625,2.0
113882,113.882,47.8770751953125,450.2535400390625,7.6381072998046875,2.0
114840,114.84,48.32861328125,450.615478515625,7.6381072998046875,2.0
115797,115.797,48.78143310546875,451.5452575683594,7.6367340087890625,2.0
116749,116.749,49.22943115234375,449.62939453125,7.63458251953125,2.0
117669,117.669,49.67791748046875,449.21026611328125,7.6336212158203125,2.0
118675,118.675,50.12298583984375,448.24688720703125,7.6317138671875,2.0
119644,119.644,50.57232666015625,448.03021240234375,7.6323089599609375,2.0
120601,120.601,51.02264404296875,449.38031005859375,7.6362762451171875,2.0
121594,121.594,51.47711181640625,451.17816162109375,7.6387786865234375,2.0
122568,122.568,51.92706298828125,451.17816162109375,7.6377105712890625,2.0
123516,123.516,52.37286376953125,450.80023193359375,7.6345062255859375,2.0
124520,124.52,52.82061767578125,449.0535888671875,7.62860107421875,2.0
125506,125.506,53.2679443359375,448.66876220703125,7.6294097900390625,2.0
126478,126.478,53.71728515625,447.6573791503906,7.6332855224609375,2.0
127466,127.466,54.16778564453125,448.2323303222656,7.63385009765625,2.0
128481,128.481,54.61956787109375,448.98486328125,7.6358795166015625,2.0
129497,129.497,55.07073974609375,450.43994140625,7.6342315673828125,2.0
130463,130.463,55.51885986328125,450.66656494140625,7.629180908203125,2.0
131459,131.459,55.96728515625,449.749267578125,7.6285247802734375,2.0
132436,132.436,56.41375732421875,448.7435302734375,7.6304779052734375,2.0
133424,133.424,56.861572265625,447.99822998046875,7.6323089599609375,2.0
134419,134.419,57.310546875,447.9538269042969,7.634918212890625,2.0
135469,135.469,57.7650146484375,448.7314453125,7.6374359130859375,2.0
136448,136.448,58.21636962890625,450.6537170410156,7.634796142578125,2.0
137419,137.419,58.662353515625,450.9617614746094,7.630340576171875,2.0
138370,138.37,58.662353515625,449.2108154296875,7.628326416015625,2.0
139237,139.237,59.1114501953125,449.26153564453125,7.6295013427734375,2.0
140101,140.101,59.55877685546875,448.10809326171875,7.6326141357421875,2.0
140958,140.958,60.008056640625,448.57525634765625,7.633758544921875,2.0
141840,141.84,60.46002197265625,449.7307434082031,7.635009765625,2.0
142765,142.765,60.91204833984375,451.0885009765625,7.6316986083984375,2.0
143747,143.747,61.36456298828125,450.9794006347656,7.6316986083984375,2.0
144705,144.705,61.81298828125,449.93072509765625,7.63037109375,2.0
145690,145.69,62.260986328125,449.143310546875,7.632110595703125,2.0
146643,146.643,62.70758056640625,448.855712890625,7.6314239501953125,2.0
147597,147.597,63.15692138671875,448.61181640625,7.633758544921875,2.0
148528,148.528,63.60772705078125,448.61181640625,7.636474609375,2.0
149462,149.462,64.06072998046875,449.2574157714844,7.6392669677734375,2.0
150452,150.452,64.51171875,451.0032958984375,7.636627197265625,2.0
151447,151.447,64.9581298828125,450.41815185546875,7.6311187744140625,2.0
152449,152.449,65.40673828125,449.48846435546875,7.62841796875,2.0
153381,153.381,65.8525390625,448.7664489746094,7.6271820068359375,2.0
154360,154.36,66.30340576171875,448.29742431640625,7.63592529296875,2.0
155348,155.348,66.75518798828125,448.7552490234375,7.639556884765625,2.0
156348,156.348,67.20623779296875,449.7488708496094,7.635467529296875,2.0
157342,157.342,67.6568603515625,450.0671691894531,7.63568115234375,2.0
158341,158.341,68.10565185546875,450.70904541015625,7.63470458984375,2.0
159336,159.336,68.55316162109375,449.97369384765625,7.63287353515625,2.0
160303,160.303,68.9998779296875,449.280029296875,7.634246826171875,2.0
161293,161.293,68.9998779296875,448.4253234863281,7.6348114013671875,2.0
162088,162.088,69.44769287109375,448.3330993652344,7.635101318359375,2.0
162959,162.959,69.8985595703125,449.25665283203125,7.6383056640625,2.0
163863,163.863,70.35321044921875,450.453369140625,7.63848876953125,2.0
164708,164.708,70.8026123046875,449.9112548828125,7.63848876953125,2.0
165622,165.622,71.24908447265625,449.23602294921875,7.6334381103515625,2.0
166597,166.597,71.69757080078125,449.1091003417969,7.6302642822265625,2.0
167535,167.535,72.14483642578125,448.080078125,7.629791259765625,2.0
168520,168.52,72.59417724609375,448.550537109375,7.630859375,2.0
169514,169.514,73.04571533203125,449.62548828125,7.63531494140625,2.0
170483,170.483,73.4971923828125,450.76226806640625,7.6368560791015625,2.0
171471,171.471,73.94915771484375,450.64727783203125,7.64013671875,2.0
172478,172.478,74.3966064453125,450.64727783203125,7.633331298828125,2.0
173494,173.494,74.84393310546875,449.0885009765625,7.6271514892578125,2.0
174451,174.451,75.2906494140625,448.21563720703125,7.6326141357421875,2.0
175426,175.426,75.73846435546875,448.21563720703125,7.634429931640625,2.0
176422,176.422,76.191162109375,448.1336669921875,7.6380157470703125,2.0
177389,177.389,76.644287109375,449.1497497558594,7.640045166015625,2.0
178391,178.391,77.094970703125,450.9228515625,7.63604736328125,2.0
179312,179.312,77.54022216796875,450.1949462890625,7.6321868896484375,2.0
180275,180.275,77.9898681640625,448.8388366699219,7.63055419921875,2.0
181252,181.252,78.435546875,448.59271240234375,7.6311492919921875,2.0
182239,182.239,78.886474609375,448.1244812011719,7.633087158203125,2.0
183250,183.25,79.33642578125,448.6656799316406,7.6351165771484375,2.0
184243,184.243,79.33642578125,449.63677978515625,7.6385040283203125,2.0
185039,185.039,79.789794921875,450.993408203125,7.6351776123046875,2.0
185920,185.92,80.23992919921875,450.6376953125,7.6312255859375,2.0
186759,186.759,80.68927001953125,450.132080078125,7.6311492919921875,2.0
187665,187.665,81.13623046875,449.10162353515625,7.6311492919921875,2.0
188594,188.594,81.58294677734375,448.3748779296875,7.63250732421875,2.0
189594,189.594,82.03076171875,448.32208251953125,7.632110595703125,2.0
190522,190.522,82.48211669921875,449.41351318359375,7.630462646484375,2.0
191504,191.504,82.9354248046875,450.6584167480469,7.6360015869140625,2.0
192452,192.452,83.3857421875,450.57806396484375,7.64044189453125,2.0
193427,193.427,83.83270263671875,449.35858154296875,7.6309051513671875,2.0
194402,194.402,84.2806396484375,448.9701843261719,7.624542236328125,2.0
195379,195.379,84.72784423828125,448.42724609375,7.626708984375,2.0
196373,196.373,85.17730712890625,448.42724609375,7.630096435546875,2.0
197342,197.342,85.63006591796875,448.7814025878906,7.637939453125,2.0
198323,198.323,86.0823974609375,449.6290283203125,7.6368408203125,2.0
199263,199.263,86.53375244140625,451.0069274902344,7.6349029541015625,2.0
200190,200.19,86.53375244140625,451.12799072265625,7.6378173828125,2.0
200980,200.98,86.98187255859375,450.03265380859375,7.634124755859375,2.0
201873,201.873,87.4300537109375,449.4104309082031,7.6283111572265625,2.0
202769,202.769,87.87677001953125,448.48114013671875,7.630767822265625,2.0
203675,203.675,88.32611083984375,448.9602966308594,7.6382293701171875,2.0
204600,204.6,88.77777099609375,450.016845703125,7.6405181884765625,2.0
205600,205.6,89.23114013671875,451.14630126953125,7.63818359375,2.0
206582,206.582,89.67962646484375,450.26190185546875,7.63818359375,2.0
207507,207.507,90.12689208984375,449.1778564453125,7.6302337646484375,2.0
208478,208.478,90.57598876953125,449.2210693359375,7.6265869140625,2.0
209440,209.44,91.02325439453125,448.645751953125,7.6320343017578125,2.0
210406,210.406,91.4742431640625,448.95367431640625,7.634735107421875,2.0
211446,211.446,91.92523193359375,450.27484130859375,7.6385955810546875,2.0
212386,212.386,92.3780517578125,451.1439208984375,7.640625,2.0
213363,213.363,92.82904052734375,451.1439208984375,7.63818359375,2.0
214373,214.373,93.279052734375,450.75360107421875,7.632171630859375,2.0
215351,215.351,93.72686767578125,450.75360107421875,7.6238555908203125,2.0
216298,216.298,94.17352294921875,449.73284912109375,7.629425048828125,2.0
217301,217.301,94.6229248046875,448.735595703125,7.6318359375,2.0
218234,218.234,95.074951171875,449.0956726074219,7.62890625,2.0
219160,219.16,95.53009033203125,450.1152038574219,7.63873291015625,2.0
220154,220.154,95.9796142578125,451.8126525878906,7.640716552734375,2.0
221182,221.182,96.4273681640625,451.102783203125,7.6343994140625,2.0
222140,222.14,96.4273681640625,449.93218994140625,7.63189697265625,2.0
222948,222.948,96.8758544921875,449.0365295410156,7.6323089599609375,2.0
223818,223.818,97.322998046875,448.9864807128906,7.63580322265625,2.0
224668,224.668,97.77264404296875,449.2777404785156,7.6369476318359375,2.0
225575,225.575,98.2249755859375,449.7783203125,7.6370391845703125,2.0
226520,226.52,98.678466796875,451.7010498046875,7.6370391845703125,2.0
227485,227.485,99.12744140625,450.7445068359375,7.6354827880859375,2.0
228424,228.424,99.57659912109375,450.03179931640625,7.63140869140625,2.0
229344,229.344,100.02374267578125,449.102294921875,7.63055419921875,2.0
230421,230.421,100.47186279296875,448.22052001953125,7.6312408447265625,2.0
231401,231.401,100.9197998046875,448.656494140625,7.6319122314453125,2.0
232370,232.37,101.37213134765625,450.0231628417969,7.632110595703125,2.0
233379,233.379,101.8258056640625,451.2320556640625,7.6341400146484375,2.0
234310,234.31,102.27496337890625,451.2320556640625,7.63616943359375,2.0
235258,235.258,102.7230224609375,450.53790283203125,7.633056640625,2.0
236260,236.26,103.1697998046875,449.0438232421875,7.63006591796875,2.0
237194,237.194,103.61834716796875,448.8652038574219,7.628814697265625,2.0
238169,238.169,104.06793212890625,448.30224609375,7.630859375,2.0
239144,239.144,104.51861572265625,448.79595947265625,7.63629150390625,2.0
240174,240.174,104.97259521484375,449.23968505859375,7.6363525390625,2.0
241163,241.163,105.42279052734375,451.40899658203125,7.6355743408203125,2.0
242151,242.151,105.87225341796875,450.45843505859375,7.63519287109375,2.0
243147,243.147,106.31756591796875,449.935546875,7.632476806640625,2.0
244130,244.13,106.76568603515625,448.83642578125,7.6352081298828125,2.0
245108,245.108,106.76568603515625,448.01239013671875,7.63568115234375,2.0
245993,245.993,107.213623046875,447.8881530761719,7.6310272216796875,2.0
246856,246.856,107.666259765625,450.10003662109375,7.6341552734375,2.0
247690,247.69,108.1199951171875,451.393310546875,7.6357879638671875,2.0
248597,248.597,108.5673828125,450.547607421875,7.6287841796875,2.0
249550,249.55,109.01702880859375,449.84539794921875,7.627655029296875,2.0
250482,250.482,109.463623046875,448.69561767578125,7.627655029296875,2.0
251427,251.427,109.912109375,448.80718994140625,7.6367950439453125,2.0
252360,252.36,110.36181640625,449.31195068359375,7.646453857421875,2.0
253311,253.311,110.812255859375,449.112060546875,7.64202880859375,2.0
254243,254.243,111.2667236328125,449.112060546875,7.6347808837890625,2.0
255208,255.208,111.715087890625,451.41046142578125,7.6369476318359375,2.0
256212,256.212,112.16473388671875,450.310791015625,7.633148193359375,2.0
257206,257.206,112.6114501953125,450.132568359375,7.632781982421875,2.0
258214,258.214,113.0579833984375,448.94158935546875,7.632293701171875,2.0
259231,259.231,113.50592041015625,448.214599609375,7.6308441162109375,2.0
260210,260.21,113.96026611328125,448.214599609375,7.635894775390625,2.0
261175,261.175,114.41259765625,449.82928466796875,7.6380157470703125,2.0
262163,262.163,114.8597412109375,451.16156005859375,7.6368408203125,2.0
263064,263.064,114.8597412109375,449.6087951660156,7.631011962890625,2.0
263855,263.855,115.3096923828125,449.05828857421875,7.6269683837890625,2.0
264737,264.737,115.75732421875,449.1671142578125,7.6298065185546875,2.0
