time_us,time_ms,angle,vel,vbat,set_volts
1116,1.116,0.23230218887329102,0.1858978271484375,8.034835815429688,-4.0
1923,1.923,0.2292342185974121,-1.1743621826171875,8.034835815429688,-4.0
2878,2.878,0.15358972549438477,-28.293533325195312,7.92425537109375,-4.0
3887,3.887,-0.006040096282958984,-75.32980346679688,7.4046173095703125,-4.0
4837,4.837,-0.23987627029418945,-132.55642700195312,6.9311676025390625,-4.0
5814,5.814,-0.5467684268951416,-194.85275268554688,6.8238677978515625,-4.0
6803,6.803,-0.8976664543151855,-250.69541931152344,6.8041229248046875,-4.0
7779,7.779,-1.312608242034912,-309.8080749511719,6.8566436767578125,-4.0
8779,8.779,-1.773186206817627,-364.0263671875,6.918121337890625,-4.0
9779,9.779,-2.279208183288574,-415.058349609375,6.9977874755859375,-4.0
10810,10.81,-2.8295235633850098,-463.40936279296875,7.0909576416015625,-4.0
11753,11.753,-3.4181885719299316,-508.5456237792969,7.1728057861328125,-4.0
12698,12.698,-4.045395374298096,-508.5456237792969,7.2532501220703125,-4.0
13658,13.658,-4.694652557373047,-550.4486083984375,7.332427978515625,-4.0
14609,14.609,-5.369699954986572,-586.9244384765625,7.39794921875,-4.0
15555,15.555,-5.369699954986572,-618.4575805664062,7.4603118896484375,-4.0
16517,16.517,-6.064497470855713,-645.225341796875,7.51776123046875,-4.0
17314,17.314,-6.779524326324463,-671.1200561523438,7.5658111572265625,-4.0
18239,18.239,-7.516602039337158,-694.7635498046875,7.6102142333984375,-4.0
19098,19.098,-8.269691467285156,-714.6741943359375,7.6521148681640625,-4.0
20013,20.013,-9.027093887329102,-730.22021484375,7.6813201904296875,-4.0
20982,20.982,-9.800220489501953,-745.728271484375,7.707275390625,-4.0
21956,21.956,-10.586959838867188,-760.2066650390625,7.7318115234375,-4.0
22930,22.93,-11.401121139526367,-773.710693359375,7.7509002685546875,-4.0
23908,23.908,-12.191503524780273,-785.785400390625,7.7509002685546875,-4.0
24840,24.84,-13.007965087890625,-796.257080078125,7.7783660888671875,-4.0
25791,25.791,-13.836315155029297,-808.0955810546875,7.8085174560546875,-4.0
26737,26.737,-14.668596267700195,-816.773681640625,7.83233642578125,-4.0
27739,27.739,-15.501165390014648,-822.0808715820312,7.84765625,-4.0
28696,28.696,-16.34571647644043,-829.9576416015625,7.8616485595703125,-4.0
29692,29.692,-17.187297821044922,-829.9576416015625,7.877105712890625,-4.0
30637,30.637,-18.030122756958008,-833.5432739257812,7.8757781982421875,-4.0
31637,31.637,-18.875442504882812,-840.7827758789062,7.8634490966796875,-4.0
32643,32.643,-19.740991592407227,-840.7827758789062,7.87506103515625,-4.0
33622,33.622,-20.624277114868164,-849.3497924804688,7.90557861328125,-4.0
34590,34.59,-21.46834945678711,-855.1630859375,7.918243408203125,-4.0
35549,35.549,-22.336103439331055,-858.1790771484375,7.92633056640625,-4.0
36481,36.481,-22.336103439331055,-861.8142700195312,7.94036865234375,-4.0
37421,37.421,-23.208267211914062,-865.2991943359375,7.937774658203125,-4.0
38260,38.26,-24.071611404418945,-863.89501953125,7.9195404052734375,-4.0
39146,39.146,-24.930736541748047,-862.8101806640625,7.908172607421875,-4.0
39991,39.991,-25.80481719970703,-866.8873291015625,7.9253082275390625,-4.0
40966,40.966,-26.684268951416016,-871.09521484375,7.946868896484375,-4.0
41933,41.933,-27.561033248901367,-873.03515625,7.955108642578125,-4.0
42895,42.895,-28.442977905273438,-876.3399047851562,7.966522216796875,-4.0
43858,43.858,-29.346012115478516,-879.340576171875,7.966522216796875,-4.0
44837,44.837,-30.199291229248047,-876.8275146484375,7.9671478271484375,-4.0
45825,45.825,-31.091106414794922,-875.2405395507812,7.9462738037109375,-4.0
46764,46.764,-31.950519561767578,-876.5390625,7.930755615234375,-4.0
47743,47.743,-32.83888626098633,-879.679931640625,7.940155029296875,-4.0
48750,48.75,-33.742210388183594,-881.3284301757812,7.957672119140625,-4.0
49738,49.738,-34.608909606933594,-882.7271118164062,7.9635009765625,-4.0
50715,50.715,-35.500343322753906,-886.34814453125,7.9706573486328125,-4.0
51705,51.705,-36.37998580932617,-883.359130859375,7.977020263671875,-4.0
52705,52.705,-37.275638580322266,-880.6962890625,7.95806884765625,-4.0
53727,53.727,-38.13773727416992,-881.886962890625,7.9357452392578125,-4.0
54789,54.789,-39.028499603271484,-884.7986450195312,7.9474029541015625,-4.0
55765,55.765,-39.93767166137695,-885.6962280273438,7.9693756103515625,-4.0
56725,56.725,-40.805328369140625,-886.6478881835938,7.974700927734375,-4.0
57701,57.701,-41.700599670410156,-889.0518188476562,7.98040771484375,-4.0
58747,58.747,-42.580623626708984,-886.892333984375,7.9870758056640625,-4.0
59713,59.713,-43.45988082885742,-883.8143310546875,7.966461181640625,-4.0
60659,60.659,-44.34364700317383,-883.3592529296875,7.9435577392578125,-4.0
61658,61.658,-45.23709487915039,-887.2997436523438,7.94842529296875,-4.0
62659,62.659,-46.12641906738281,-888.0462646484375,7.964324951171875,-4.0
63659,63.659,-47.01401901245117,-887.8928833007812,7.9723052978515625,-4.0
64615,64.615,-47.90996170043945,-890.6516723632812,7.980224609375,-4.0
65602,65.602,-48.796504974365234,-888.9235229492188,7.9892120361328125,-4.0
66602,66.602,-49.67624282836914,-885.7852172851562,7.973541259765625,-4.0
67603,67.603,-50.56163787841797,-885.7852172851562,7.948760986328125,-4.0
68577,68.577,-51.47617721557617,-885.968017578125,7.950927734375,-4.0
69520,69.52,-52.34824752807617,-889.163330078125,7.96868896484375,-4.0
70473,70.473,-53.25473403930664,-890.255126953125,7.9781036376953125,-4.0
71454,71.454,-54.129005432128906,-888.5799560546875,7.9858245849609375,-4.0
72437,72.437,-55.01679992675781,-890.784423828125,7.9897613525390625,-4.0
73407,73.407,-55.90018081665039,-889.2763671875,7.9734344482421875,-4.0
74407,74.407,-55.90018081665039,-886.5147094726562,7.9527435302734375,-4.0
75205,75.205,-56.80532455444336,-886.2720336914062,7.9541168212890625,-4.0
76093,76.093,-57.680362701416016,-889.9882202148438,7.97119140625,-4.0
76944,76.944,-58.57294845581055,-891.1962280273438,7.980224609375,-4.0
77904,77.904,-59.456424713134766,-888.6597900390625,7.9856109619140625,-4.0
78856,78.856,-60.352943420410156,-891.3875732421875,7.994720458984375,-4.0
79825,79.825,-61.24178695678711,-889.9833984375,7.9814605712890625,-4.0
80799,80.799,-62.14377212524414,-887.3797607421875,7.9814605712890625,-4.0
81762,81.762,-63.00759506225586,-886.3428955078125,7.95318603515625,-4.0
82690,82.69,-63.90401077270508,-890.3532104492188,7.9522705078125,-4.0
83658,83.658,-64.81538391113281,-890.590087890625,7.97381591796875,-4.0
84652,84.652,-65.68083953857422,-889.4409790039062,7.9822540283203125,-4.0
85633,85.633,-66.59423065185547,-890.6444091796875,7.985504150390625,-4.0
86659,86.659,-67.46380615234375,-889.7230224609375,7.992767333984375,-4.0
87662,87.662,-68.36750793457031,-887.68505859375,7.9795379638671875,-4.0
88667,88.667,-69.23114013671875,-885.8748779296875,7.9531097412109375,-4.0
89643,89.643,-70.12736511230469,-890.295654296875,7.9514923095703125,-4.0
90625,90.625,-71.01947784423828,-891.3299560546875,7.97216796875,-4.0
91618,91.618,-71.9055404663086,-889.8385009765625,7.9810943603515625,-4.0
92613,92.613,-72.79716491699219,-890.3501586914062,7.98309326171875,-4.0
93612,93.612,-73.68611145019531,-889.8291625976562,7.992401123046875,-4.0
94612,94.612,-74.57112121582031,-887.55908203125,7.98138427734375,-4.0
95618,95.618,-75.45315551757812,-885.8277587890625,7.9532928466796875,-4.0
96612,96.612,-76.35188293457031,-890.0690307617188,7.951202392578125,-4.0
97597,97.597,-77.24427032470703,-891.1132202148438,7.9728546142578125,-4.0
98531,98.531,-78.12861633300781,-889.5059814453125,7.9840087890625,-4.0
99531,99.531,-79.02052307128906,-890.2591552734375,7.9853057861328125,-4.0
100556,100.556,-79.911865234375,-889.5640869140625,7.9898681640625,-4.0
101532,101.532,-80.79572296142578,-888.0303955078125,7.9809112548828125,-4.0
102503,102.503,-81.67833709716797,-888.0303955078125,7.9571685791015625,-4.0
103482,103.482,-82.5947036743164,-885.770751953125,7.95098876953125,-4.0
104470,104.47,-83.48565673828125,-889.5487060546875,7.9727630615234375,-4.0
105425,105.425,-84.3726806640625,-890.9210815429688,7.9821624755859375,-4.0
106425,106.425,-85.26555633544922,-889.524169921875,7.9835662841796875,-4.0
107453,107.453,-86.15650939941406,-891.1221923828125,7.996673583984375,-4.0
108427,108.427,-87.03874206542969,-891.2588500976562,7.98651123046875,-4.0
109392,109.392,-87.9157943725586,-887.4295654296875,7.9544219970703125,-4.0
110394,110.394,-88.80914306640625,-883.5121459960938,7.9432373046875,-4.0
111395,111.395,-89.68016052246094,-886.7154541015625,7.9630889892578125,-4.0
112341,112.341,-90.5696792602539,-888.958740234375,7.975616455078125,-4.0
113342,113.342,-91.46187591552734,-889.4146728515625,7.9793243408203125,-4.0
114320,114.32,-92.35388946533203,-890.660400390625,7.99310302734375,-4.0
115302,115.302,-93.23497009277344,-890.7926025390625,7.987884521484375,-4.0
116303,116.303,-93.23497009277344,-887.189697265625,7.95733642578125,-4.0
117140,117.14,-94.13215637207031,-883.84423828125,7.9421539306640625,-4.0
117991,117.991,-95.0027847290039,-886.149658203125,7.9555206298828125,-4.0
118889,118.889,-95.89604187011719,-887.97900390625,7.974090576171875,-4.0
119741,119.741,-96.78287506103516,-888.1309814453125,7.9822540283203125,-4.0
120722,120.722,-97.6766128540039,-890.1395874023438,7.9822540283203125,-4.0
121645,121.645,-98.59124755859375,-891.6094360351562,7.9918212890625,-4.0
122648,122.648,-99.46983337402344,-887.5369262695312,7.987396240234375,-4.0
123581,123.581,-100.32598876953125,-883.239013671875,7.95635986328125,-4.0
124553,124.553,-101.21243286132812,-884.36376953125,7.93865966796875,-4.0
125521,125.521,-102.10578918457031,-887.3108520507812,7.95166015625,-4.0
126548,126.548,-102.99597930908203,-888.269287109375,7.9713897705078125,-4.0
127543,127.543,-103.88980865478516,-889.8958740234375,7.980133056640625,-4.0
128537,128.537,-104.78421020507812,-891.8424072265625,7.990081787109375,-4.0
129538,129.538,-105.6644287109375,-888.3250122070312,7.99041748046875,-4.0
130491,130.491,-106.54397583007812,-884.9473876953125,7.9649810791015625,-4.0
131448,131.448,-107.45199584960938,-884.9473876953125,7.945220947265625,-4.0
132420,132.42,-108.34381866455078,-885.4514770507812,7.9566802978515625,-4.0
133367,133.367,-109.23332977294922,-887.8426513671875,7.972930908203125,-4.0
134373,134.373,-110.12744903564453,-887.7803344726562,7.980804443359375,-4.0
135341,135.341,-111.002685546875,-890.1892700195312,7.9915313720703125,-4.0
136307,136.307,-111.88069915771484,-892.5637817382812,7.991973876953125,-4.0
137319,137.319,-112.75890350341797,-887.4744873046875,7.9671173095703125,-4.0
138288,138.288,-113.64257049560547,-883.630859375,7.945892333984375,-4.0
139290,139.29,-113.64257049560547,-884.220947265625,7.954925537109375,-4.0
140242,140.242,-115.42505645751953,-886.8853759765625,7.9732208251953125,-4.0
141239,141.239,-115.42505645751953,-887.3970336914062,7.980804443359375,-4.0
142052,142.052,-116.3405532836914,-889.8331298828125,7.988922119140625,-4.0
142934,142.934,-117.21617126464844,-892.3267822265625,7.991973876953125,-4.0
143785,143.785,-118.09561920166016,-887.8505249023438,7.96624755859375,-4.0
144753,144.753,-118.9721908569336,-883.877685546875,7.940460205078125,-4.0
145744,145.744,-119.85557556152344,-883.80224609375,7.9520416259765625,-4.0
146689,146.689,-120.74969482421875,-887.1286010742188,7.972747802734375,-4.0
147651,147.651,-121.64016723632812,-887.5377197265625,7.972747802734375,-4.0
148585,148.585,-122.5506820678711,-888.626220703125,7.9779815673828125,-4.0
149567,149.567,-123.42898559570312,-892.5518798828125,7.9871826171875,-4.0
150517,150.517,-124.31034851074219,-888.5612182617188,7.9954833984375,-4.0
151469,151.469,-125.18846130371094,-884.878173828125,7.9743804931640625,-4.0
152436,152.436,-126.07347106933594,-884.4849853515625,7.944000244140625,-4.0
153437,153.437,-126.96566772460938,-887.3471069335938,7.9524993896484375,-4.0
154472,154.472,-127.85575866699219,-888.12451171875,7.9723663330078125,-4.0
155450,155.45,-128.74557495117188,-888.7551879882812,7.976043701171875,-4.0
156519,156.519,-129.6416015625,-891.2306518554688,7.98486328125,-4.0
157501,157.501,-130.52642822265625,-889.4494018554688,7.990936279296875,-4.0
158452,158.452,-131.40626525878906,-884.9761352539062,7.971588134765625,-4.0
159445,159.445,-132.29002380371094,-885.3112182617188,7.9461517333984375,-4.0
160440,160.44,-133.18490600585938,-888.0709228515625,7.9510345458984375,-4.0
161448,161.448,-134.09542846679688,-889.0558471679688,7.9718780517578125,-4.0
162475,162.475,-134.96490478515625,-889.6796875,7.9805145263671875,-4.0
163444,163.444,-135.8589324951172,-890.948974609375,7.987457275390625,-4.0
164444,164.444,-136.73751831054688,-886.1532592773438,7.9921875,-4.0
165509,165.509,-137.6073760986328,-880.34619140625,7.96575927734375,-4.0
166482,166.482,-138.46841430664062,-873.4920654296875,7.92803955078125,-4.0
167428,167.428,-139.3343505859375,-870.9215087890625,7.91046142578125,-4.0
168427,168.427,-140.18936157226562,-865.4566650390625,7.904632568359375,-4.0
